timestamp,emg1,emg2,emg3,emg4,emg5,emg6,emg7,emg8
1.52968E+15,-1,3,-11,-3,-1,-5,14,2
1.52968E+15,3,18,14,6,4,4,13,2
1.52968E+15,-6,-33,-24,-9,-6,-10,-34,-5
1.52968E+15,-1,-14,5,3,-2,-11,-6,-2
1.52968E+15,0,-2,-11,0,2,-5,2,3
1.52968E+15,0,-1,13,5,5,5,7,2
1.52968E+15,1,15,-7,4,-2,-14,9,2
1.52968E+15,-4,-8,-5,-12,-3,-3,-2,-7
1.52968E+15,2,-6,-23,2,2,-3,-2,-13
1.52968E+15,-5,6,53,8,-4,-12,-15,-16
1.52968E+15,1,-3,-27,-5,-1,3,6,9
1.52968E+15,-3,1,9,4,-6,4,8,0
1.52968E+15,6,29,9,4,2,6,-28,2
1.52968E+15,0,-13,-32,-8,2,1,9,2
1.52968E+15,1,20,30,14,7,13,30,10
1.52968E+15,-4,-19,-5,3,-3,-5,-3,-7
1.52968E+15,-4,2,18,-6,-7,-12,-6,-6
1.52968E+15,-1,-13,-7,7,0,-3,-9,-3
1.52968E+15,3,17,-23,-3,0,12,5,5
1.52968E+15,-2,3,-17,-6,4,-2,-4,-7
1.52968E+15,-3,-18,26,8,-5,2,-5,-4
1.52968E+15,-4,-12,-14,-13,-8,-5,-8,-9
1.52968E+15,1,9,8,1,-1,13,9,1
1.52968E+15,2,6,3,4,2,2,-5,-2
1.52968E+15,2,12,6,5,3,8,-8,1
1.52968E+15,-1,6,7,4,2,-10,-18,-3
1.52968E+15,1,-21,-43,-12,-1,-12,-2,-9
1.52968E+15,1,19,17,-6,-6,-2,24,20
1.52968E+15,0,-6,-2,-2,-5,-10,7,-9
1.52968E+15,1,-4,17,-1,3,-7,2,5
1.52968E+15,-2,-4,13,11,2,-7,-2,9
1.52968E+15,-3,-28,-39,-5,1,-7,-11,-2
1.52968E+15,4,-9,-7,-4,-2,5,10,2
1.52968E+15,0,19,12,4,-2,15,22,17
1.52968E+15,-2,6,15,1,-2,-8,-16,-2
1.52968E+15,-1,-12,-12,-12,-7,4,0,-3
1.52968E+15,1,5,15,10,4,10,5,-3
1.52968E+15,-4,-15,-24,-8,-2,-6,-11,-11
1.52968E+15,6,8,25,10,6,1,1,2
1.52968E+15,-4,-1,-10,-10,-4,-6,3,-7
1.52968E+15,-3,2,-19,-13,-10,-6,-9,0
1.52968E+15,2,-7,2,1,5,10,5,2
1.52968E+15,-3,19,1,6,3,19,2,3
1.52968E+15,-5,-12,0,-6,-5,-4,-12,-13
1.52968E+15,-4,-14,-38,-3,5,-24,-18,-1
1.52968E+15,6,11,20,6,2,-2,10,-4
1.52968E+15,2,-5,13,-2,-5,4,5,5
1.52968E+15,-1,5,7,7,0,10,-10,-6
1.52968E+15,-1,17,16,1,-5,0,4,0
1.52968E+15,1,-14,-28,-4,-3,-14,11,-2
1.52968E+15,-10,-12,-18,-9,-1,4,-15,-13
1.52968E+15,5,15,28,11,2,5,-2,0
1.52968E+15,1,10,-1,-2,3,-13,1,1
1.52968E+15,-5,-10,-26,-10,-3,-3,-6,-1
1.52968E+15,-6,-17,4,-2,-8,0,16,5
1.52968E+15,-4,-13,-20,-1,0,-1,-6,1
1.52968E+15,0,18,19,2,5,-6,1,-4
1.52968E+15,-3,-15,18,6,-5,-5,-9,-8
1.52968E+15,-1,-3,-3,-5,-2,4,6,4
1.52968E+15,-3,-1,-3,-1,0,-2,-1,2
1.52968E+15,2,-1,-4,4,-1,0,-3,2
1.52968E+15,6,17,8,0,-3,-9,-12,2
1.52968E+15,-3,-1,2,-4,-5,-15,-14,-25
1.52968E+15,2,15,-10,-6,-2,9,5,2
1.52968E+15,-6,-25,-5,-3,-4,-12,15,-2
1.52968E+15,-1,5,1,-5,-3,2,-7,-5
1.52968E+15,0,-16,-7,-2,-1,-2,-27,-14
1.52968E+15,2,14,-11,-1,1,-3,-2,-5
1.52968E+15,5,8,18,11,6,-1,7,15
1.52968E+15,-6,-15,8,0,-4,-6,-1,-5
1.52968E+15,6,17,-7,3,2,7,-6,-7
1.52968E+15,-5,-3,24,7,0,-1,13,-1
1.52968E+15,-3,-22,-34,-8,-2,0,-7,-2
1.52968E+15,2,-4,-13,-4,-1,-6,6,9
1.52968E+15,1,13,65,11,1,5,-4,1
1.52968E+15,-2,-16,-66,-25,-4,-3,-8,-3
1.52968E+15,0,8,17,-7,-1,-8,-7,-3
1.52968E+15,-6,-2,-33,-10,0,-2,9,-2
1.52968E+15,3,8,23,6,-3,-2,3,6
1.52968E+15,3,-3,19,8,3,13,4,8
1.52968E+15,-4,4,3,4,1,3,9,6
1.52968E+15,-1,-9,12,8,1,-8,-34,-10
1.52968E+15,-4,-4,-38,-13,-1,12,16,13
1.52968E+15,-4,-24,-20,3,-1,-13,12,2
1.52968E+15,0,2,-6,-8,-2,7,-21,-9
1.52968E+15,-3,17,9,5,-5,3,8,-4
1.52968E+15,-2,-2,-3,-5,-6,-18,8,12
1.52968E+15,-5,7,8,7,3,0,-15,-25
1.52968E+15,1,-10,-4,0,-1,-4,0,11
1.52968E+15,1,2,-7,1,2,-1,9,3
1.52968E+15,-4,-21,-13,-2,0,-4,2,-1
1.52968E+15,4,-1,18,2,0,-1,11,4
1.52968E+15,3,18,29,1,-4,-7,-6,-8
1.52968E+15,-5,0,-25,-3,3,10,10,-8
1.52968E+15,-3,-8,-8,-6,-3,-6,-9,-5
1.52968E+15,1,-2,25,11,2,-2,-1,8
1.52968E+15,5,20,4,4,0,0,1,-3
1.52968E+15,-8,-13,-6,-6,-6,-16,-8,13
1.52968E+15,0,6,-16,-5,-1,16,3,-1
1.52968E+15,4,6,0,-2,0,-5,-15,-9
1.52968E+15,-1,0,1,2,-3,-1,23,9
1.52968E+15,-5,-18,-14,-2,-5,-12,-19,-5
1.52968E+15,-3,-10,11,4,3,6,15,2
1.52968E+15,4,25,11,0,-2,-1,-12,4
1.52968E+15,-6,-15,7,-3,-6,-23,-7,-4
1.52968E+15,8,-1,-9,-2,6,22,8,9
1.52968E+15,1,3,-11,-1,0,-5,7,6
1.52968E+15,-1,-3,-18,-3,-3,-5,-4,1
1.52968E+15,-3,-8,11,0,-3,-3,-7,-13
1.52968E+15,6,7,-17,-3,0,1,10,8
1.52968E+15,-4,10,21,10,6,-3,-16,-7
1.52968E+15,-5,-19,9,3,1,-1,14,4
1.52968E+15,5,9,-18,7,4,2,-10,-1
1.52968E+15,-1,12,24,-7,-2,-4,1,2
1.52968E+15,4,14,29,11,-5,5,30,2
1.52968E+15,1,-15,-62,-21,-7,-6,-16,3
1.52968E+15,-7,-20,-5,-5,1,0,2,-4
1.52968E+15,1,12,7,-2,-7,-4,-5,-5
1.52968E+15,-2,-7,0,-2,4,-1,-9,-5
1.52968E+15,2,9,26,10,7,17,2,-5
1.52968E+15,-4,-19,-19,-9,-7,4,10,9
1.52968E+15,3,10,-10,1,1,-5,-9,-1
1.52968E+15,6,7,10,5,2,-5,-7,4
1.52968E+15,-7,-25,15,-2,-5,-2,-2,-5
1.52968E+15,-2,-8,-13,-4,3,6,6,-5
1.52968E+15,-1,21,16,7,5,-6,15,-2
1.52968E+15,-3,-4,-5,-2,0,0,-17,2
1.52968E+15,1,2,-2,1,-1,-4,3,4
1.52968E+15,-2,4,1,-2,0,-5,-5,-2
1.52968E+15,1,7,26,10,6,6,2,0
1.52968E+15,1,5,-49,-12,-4,0,3,4
1.52968E+15,-3,1,9,-1,0,-1,4,-6
1.52968E+15,-7,-3,39,5,-4,-5,9,-1
1.52968E+15,2,3,13,-3,-2,-5,-26,-10
1.52968E+15,-5,6,-28,-18,-4,1,-10,-5
1.52968E+15,2,-9,-19,4,4,10,5,6
1.52968E+15,5,10,12,12,0,-6,-11,-2
1.52968E+15,0,-14,-1,-5,0,13,44,6
1.52968E+15,-3,-19,14,6,-4,1,0,-16
1.52968E+15,-1,11,3,-8,-6,-12,3,-3
1.52968E+15,-1,1,4,1,10,18,3,-2
1.52968E+15,-6,-8,-37,-18,-10,-19,-22,-2
1.52968E+15,-4,-2,-20,-9,1,0,6,-6
1.52968E+15,0,11,10,2,0,1,0,7
1.52968E+15,-5,-4,11,2,-2,-14,-7,-5
1.52968E+15,3,-11,-32,-11,-7,-4,-1,-1
1.52968E+15,-3,-11,6,9,4,6,0,2
1.52968E+15,3,15,6,-4,0,-1,-2,0
1.52968E+15,-2,12,17,-4,-5,-9,-3,1
1.52968E+15,-2,-18,14,8,1,-5,-10,-4
1.52968E+15,-2,15,-3,-14,-8,-5,-2,-1
1.52968E+15,-1,-6,-7,1,-1,-7,-9,0
1.52968E+15,3,0,1,0,4,-4,15,7
1.52968E+15,-2,-11,-11,9,5,14,15,6
1.52968E+15,4,7,38,13,0,-2,15,7
1.52968E+15,-2,-8,-22,1,3,6,15,-2
1.52968E+15,2,13,-11,-10,-10,-14,-16,-10
1.52968E+15,-4,-6,35,9,0,3,4,10
1.52968E+15,-1,-16,-35,-4,1,2,4,-2
1.52968E+15,3,11,19,5,-1,-4,-1,6
1.52968E+15,3,-4,-17,3,2,6,3,8
1.52968E+15,-9,-2,-1,-8,-3,-7,2,-12
1.52968E+15,-2,4,8,7,0,-10,-34,5
1.52968E+15,-2,9,18,2,-4,3,-3,-9
1.52968E+15,-6,-10,-10,-5,-4,4,-3,-5
1.52968E+15,1,9,-17,2,0,-6,-14,-6
1.52968E+15,1,6,27,5,0,7,8,0
1.52968E+15,-2,2,16,-3,-2,-8,-14,-3
1.52968E+15,-1,-25,-48,-9,1,5,9,2
1.52968E+15,3,-2,-2,-3,-4,-2,0,4
1.52968E+15,-5,-11,-12,-6,-4,0,-9,-32
1.52968E+15,-2,9,20,7,-1,-5,-12,4
1.52968E+15,0,15,1,5,1,6,-5,-2
1.52968E+15,-4,-11,5,0,-2,-10,2,-2
1.52968E+15,4,5,-9,0,3,-3,11,7
1.52968E+15,-2,-8,-9,2,-3,12,5,-5
1.52968E+15,3,20,22,10,2,-4,-6,-1
1.52968E+15,2,-4,0,0,1,3,-3,10
1.52968E+15,0,-3,-15,-5,-2,-1,1,3
1.52968E+15,-3,-9,4,-3,-3,-9,0,0
1.52968E+15,1,3,-23,-10,3,3,1,3
1.52968E+15,1,0,32,9,0,7,2,-4
1.52968E+15,0,-13,-32,-14,-7,-8,-6,16
1.52968E+15,4,10,0,1,2,5,11,-2
1.52968E+15,-6,-16,12,2,-2,0,-4,-3
1.52968E+15,0,8,-11,2,1,-8,-16,-4
1.52968E+15,4,17,19,6,0,-6,5,-1
1.52968E+15,0,-15,-20,-2,3,9,2,9
1.52968E+15,1,-3,-11,-4,0,-3,-6,-12
1.52968E+15,0,8,18,6,-1,0,-1,3
1.52968E+15,1,-8,-1,0,2,1,10,7
1.52968E+15,-2,-2,-2,-7,-7,-11,-5,-8
1.52968E+15,2,6,7,-1,-5,-11,-7,-2
1.52968E+15,-5,-9,-9,4,2,1,1,-14
1.52968E+15,-1,-6,-9,0,2,1,-3,-7
1.52968E+15,-3,16,26,7,-4,-17,-13,0
1.52968E+15,0,-2,-7,0,9,22,25,7
1.52968E+15,1,4,-1,0,-2,-14,-18,-3
1.52968E+15,-2,-3,1,-5,-1,-1,-16,-10
1.52968E+15,1,-16,-4,-1,-1,2,8,4
1.52968E+15,1,36,23,6,-1,-3,-5,-3
1.52968E+15,-2,-21,-21,-4,0,4,18,7
1.52968E+15,2,27,24,3,1,-7,-9,2
1.52968E+15,-6,-43,-43,-7,-2,-9,5,-11
1.52968E+15,1,-8,19,-1,-4,-3,0,2
1.52968E+15,-1,-2,1,2,1,1,12,2
1.52968E+15,2,5,-9,-3,2,16,1,5
1.52968E+15,-2,5,19,5,2,-1,3,9
1.52968E+15,0,-15,-21,-7,0,5,-9,6
1.52968E+15,1,5,11,-2,-3,-4,20,5
1.52968E+15,-7,-9,-9,2,-1,1,5,1
1.52968E+15,2,12,-6,-3,0,6,-9,-10
1.52968E+15,-6,-11,12,-6,-5,-13,-4,-1
1.52968E+15,1,-4,3,-4,-3,-3,-8,6
1.52968E+15,1,3,-14,-7,-3,-3,-1,1
1.52968E+15,3,15,13,4,1,8,13,2
1.52968E+15,-8,-14,-28,-8,-10,-17,-29,-19
1.52968E+15,-2,2,20,0,2,5,-6,-9
1.52968E+15,0,0,-23,0,0,-5,0,-3
1.52968E+15,-3,3,12,0,-6,-9,-12,-4
1.52968E+15,-3,-6,-27,-13,-5,5,13,10
1.52968E+15,2,2,-11,-7,-1,-13,-13,-3
1.52968E+15,-4,-5,33,11,6,19,-3,-4
1.52968E+15,1,-10,2,2,1,4,4,2
1.52968E+15,4,18,12,4,1,9,13,6
1.52968E+15,-7,-18,-35,-8,-5,-12,-5,-4
1.52968E+15,4,7,6,0,-4,-8,-7,4
1.52968E+15,-2,-10,-19,-2,-1,-2,21,14
1.52968E+15,-1,0,29,5,2,10,-19,-15
1.52968E+15,-2,5,-7,-5,-1,3,-2,-2
1.52968E+15,-1,-6,1,2,-2,-7,2,-1
1.52968E+15,1,4,-3,-3,1,2,-4,2
1.52968E+15,-4,-1,-30,-1,0,10,-12,-4
1.52968E+15,4,11,-2,-1,0,-5,-2,3
1.52968E+15,-1,3,24,6,-1,-11,1,-1
1.52968E+15,-2,4,4,-6,1,-3,-5,-3
1.52968E+15,3,0,1,7,5,25,11,8
1.52968E+15,-2,-2,3,0,-2,-12,-6,-3
1.52968E+15,-3,-7,-27,-5,-6,5,5,-7
1.52968E+15,1,-4,-9,-3,-2,-8,-12,-2
1.52968E+15,-5,-10,46,18,3,8,18,-3
1.52968E+15,5,5,-8,-9,1,7,2,8
1.52968E+15,-6,17,-2,-11,-9,-9,-8,-17
1.52968E+15,2,3,-5,3,3,2,-2,-5
1.52968E+15,-1,-19,-19,-8,-3,-1,-16,5
1.52968E+15,-4,-2,20,3,-5,-6,-2,-3
1.52968E+15,4,4,3,3,0,-7,4,1
1.52968E+15,-4,3,-8,-5,-1,0,-8,-3
1.52968E+15,2,13,7,-2,-2,-2,13,-4
1.52968E+15,0,-2,11,11,4,-5,-2,0
1.52968E+15,5,2,16,1,-1,-3,-6,1
1.52968E+15,-7,0,-40,-21,-6,3,-6,-6
1.52968E+15,-5,-8,-5,-8,-7,-6,9,-12
1.52968E+15,-2,4,-3,-4,-7,-7,-8,-10
1.52968E+15,-2,-5,-19,-1,4,8,12,17
1.52968E+15,5,8,6,18,7,1,7,11
1.52968E+15,0,3,28,-2,-4,3,-3,8
1.52968E+15,1,-3,0,5,-2,-4,2,-2
1.52968E+15,-2,-1,-16,-10,-2,8,5,-2
1.52968E+15,2,-8,19,4,-4,0,1,-1
1.52968E+15,-2,-14,-12,1,1,-17,-17,-2
1.52968E+15,3,8,22,1,6,16,34,6
1.52968E+15,3,-2,-18,-3,4,16,-5,6
1.52968E+15,-1,14,8,4,5,11,10,-7
1.52968E+15,-4,-9,-6,-5,-5,-12,-1,3
1.52968E+15,0,-4,0,5,2,-2,-3,0
1.52968E+15,-3,2,1,5,5,15,21,-2
1.52968E+15,-3,-3,6,-9,-10,-26,-8,5
1.52968E+15,-1,1,-17,-5,0,9,-14,-4
1.52968E+15,-1,1,2,1,-1,-12,-12,1
1.52968E+15,-3,-7,0,-3,-3,-2,18,19
1.52968E+15,-1,-2,17,2,-2,-2,-12,-9
1.52968E+15,2,1,3,9,3,-3,3,-4
1.52968E+15,4,9,-13,-10,-4,-9,-6,3
1.52968E+15,-7,-27,0,-20,-10,-2,-4,-6
1.52968E+15,-3,17,-1,-11,-6,-6,-6,-3
1.52968E+15,2,-2,-13,-1,2,7,0,3
1.52968E+15,-2,-4,-9,-3,-1,11,25,-4
1.52968E+15,-1,-14,3,13,3,-11,-37,-2
1.52968E+15,3,14,1,7,3,-2,-6,0
1.52968E+15,-8,-12,-6,0,-1,4,10,-8
1.52968E+15,0,1,-24,-14,-4,4,0,-6
1.52968E+15,0,-6,17,7,2,-2,5,-7
1.52968E+15,3,7,-2,-7,-4,-6,0,6
1.52968E+15,2,11,5,7,3,6,-11,3
1.52968E+15,-2,-13,20,8,1,-8,-6,-3
1.52968E+15,4,19,-11,5,0,2,17,16
1.52968E+15,-3,-14,7,-1,0,2,13,-2
1.52968E+15,4,10,-6,2,0,-5,-7,-6
1.52968E+15,-4,4,-13,-6,-4,3,-19,-15
1.52968E+15,-4,-19,9,2,-3,-7,-5,-3
1.52968E+15,-3,-2,-2,0,-1,8,18,3
1.52968E+15,2,5,2,-7,-6,-10,2,5
1.52968E+15,1,-12,5,2,2,-3,-15,10
1.52968E+15,-1,10,-12,-2,-5,-8,12,-3
1.52968E+15,0,-13,-3,0,0,-3,2,-5
1.52968E+15,-10,-20,-12,-9,0,0,-11,-7
1.52968E+15,-1,14,2,3,-4,-4,-2,-1
1.52968E+15,5,11,11,-4,-2,-2,-2,-3
1.52968E+15,-4,-18,-2,14,4,2,-7,0
1.52968E+15,5,1,5,-5,0,8,-13,2
1.52968E+15,-7,-15,-14,0,-1,-3,-8,1
1.52968E+15,-7,-3,-13,-4,-2,-9,-3,-16
1.52968E+15,4,7,2,0,0,9,-13,5
1.52968E+15,5,-1,9,13,5,2,2,-1
1.52968E+15,-5,-16,-36,-18,-7,5,-6,2
1.52968E+15,3,3,16,6,1,-3,-1,-7
1.52968E+15,-1,5,12,4,3,7,25,7
1.52968E+15,0,19,-23,-17,-4,-4,-1,3
1.52968E+15,0,9,18,4,1,-10,0,7
1.52968E+15,1,-29,-6,-2,1,10,-8,3
1.52968E+15,2,0,3,-4,-1,0,-4,-4
1.52968E+15,-1,-8,-15,-1,-5,2,18,9
1.52968E+15,1,22,31,1,-1,0,12,3
1.52968E+15,-3,-7,-1,3,3,-4,-17,-2
1.52968E+15,0,6,-7,-9,-5,-7,-3,-4
1.52968E+15,1,-12,12,6,1,6,4,2
1.52968E+15,4,10,2,9,-2,-3,-3,-5
1.52968E+15,-3,-1,-17,-16,-4,2,30,4
1.52968E+15,-4,-6,-8,1,2,2,-20,-1
1.52968E+15,4,-1,-17,-2,-4,-18,-5,-1
1.52968E+15,-2,-9,14,8,11,20,24,0
1.52968E+15,5,24,17,0,2,2,8,5
1.52968E+15,-4,1,-17,-9,-4,-4,-10,-24
1.52968E+15,0,-3,16,3,-5,-10,6,2
1.52968E+15,7,18,-8,4,3,5,-8,4
1.52968E+15,-8,-49,-38,-11,-3,-4,-7,-5
1.52968E+15,-1,-2,23,0,-1,-5,15,10
1.52968E+15,-1,-9,-20,0,1,0,-8,-11
1.52968E+15,-2,11,0,-12,-5,-3,13,-5
1.52968E+15,5,15,51,18,-3,-8,-23,0
1.52968E+15,-1,-15,-35,-14,-1,-5,15,18
1.52968E+15,5,24,28,8,2,7,10,4
1.52968E+15,-4,-14,-6,0,-2,-6,-12,-4
1.52968E+15,-1,0,-14,2,3,17,10,-3
1.52968E+15,4,7,-1,0,2,0,1,1
1.52968E+15,-2,4,-10,-8,1,-5,5,2
1.52968E+15,1,-13,7,-3,-4,-9,-14,2
1.52968E+15,4,9,6,3,3,7,9,9
1.52968E+15,-1,-2,7,5,0,-2,-1,1
1.52968E+15,-7,-1,-8,-6,-3,-3,5,-6
1.52968E+15,2,-7,-3,7,2,5,-13,2
1.52968E+15,-7,-11,-5,-5,-6,-6,-8,-15
1.52968E+15,1,4,0,6,1,-7,1,-2
1.52968E+15,0,-5,-1,-4,3,14,27,14
1.52968E+15,0,2,1,-6,1,3,13,-6
1.52968E+15,2,0,-20,6,5,0,-16,-2
1.52968E+15,0,-2,23,11,2,3,-3,1
1.52968E+15,0,9,4,-10,-9,-12,12,2
1.52968E+15,1,-1,4,-5,-3,-6,-10,-2
1.52968E+15,-1,-5,-5,-7,-2,2,-1,0
1.52968E+15,-4,-7,-1,5,-1,-6,-11,-9
1.52968E+15,-5,-8,-8,5,3,-4,-15,-11
1.52968E+15,-2,-10,-3,-1,-2,6,21,3
1.52968E+15,3,22,-1,0,0,-12,-15,-3
1.52968E+15,-2,-9,10,-4,-7,-6,-5,-1
1.52968E+15,2,4,0,3,0,-4,-9,-1
1.52968E+15,-4,-28,-19,-7,1,14,31,-10
1.52968E+15,1,8,6,2,-2,-16,-9,8
1.52968E+15,1,18,1,3,1,12,2,-1
1.52968E+15,2,2,12,8,7,8,-8,1
1.52968E+15,-2,2,4,-3,-8,-14,0,0
1.52968E+15,-2,2,-9,-13,-8,3,-3,-10
1.52968E+15,-1,-2,-2,0,-2,4,6,0
1.52968E+15,2,10,-22,-2,-1,-18,-7,4
1.52968E+15,1,9,21,6,0,9,10,8
1.52968E+15,5,12,10,1,-1,-8,-1,8
1.52968E+15,-4,-15,-15,-4,2,-2,-2,-2
1.52968E+15,0,-5,10,0,-2,-8,-13,-2
1.52968E+15,-2,-3,13,9,2,-8,3,-5
1.52968E+15,3,-5,-13,-7,-6,-3,5,6
1.52968E+15,0,8,5,-2,-1,-1,-8,-7
1.52968E+15,-8,-21,1,-7,-12,-17,-4,5
1.52968E+15,-4,6,-24,-2,2,-1,-2,-10
1.52968E+15,-1,-5,5,10,1,2,10,8
1.52968E+15,1,-4,-2,-7,-3,-4,2,-2
1.52968E+15,1,-5,-4,-2,-1,0,-3,-3
1.52968E+15,0,6,-7,1,-2,-6,-15,0
1.52968E+15,-5,14,7,-1,4,12,-5,-5
1.52968E+15,-6,-4,-23,-10,-2,-8,-8,-9
1.52968E+15,1,8,-5,-4,-5,-7,5,1
1.52968E+15,-1,-9,2,1,-1,-1,7,12
1.52968E+15,-3,11,11,7,3,4,-11,-25
1.52968E+15,-1,-6,-7,-2,-2,2,-3,0
1.52968E+15,-4,-9,-4,2,-1,-2,-3,-5
1.52968E+15,-1,-7,3,-3,-3,-5,-8,-3
1.52968E+15,2,9,10,1,6,-2,4,1
1.52968E+15,-7,-24,-21,-3,-2,3,21,9
1.52968E+15,-1,-2,0,0,0,-5,-2,-3
1.52968E+15,3,15,21,7,-2,-5,-21,-2
1.52968E+15,-3,-17,-10,-6,-6,-3,0,2
1.52968E+15,1,6,7,0,4,-5,-8,-5
1.52968E+15,-5,-14,10,4,2,5,-6,-5
1.52968E+15,1,1,-24,-10,-7,-11,-17,4
1.52968E+15,6,20,23,4,2,1,31,5
1.52968E+15,2,10,-7,4,4,6,-8,-2
1.52968E+15,-7,-14,-6,-6,-6,-9,-4,-11
1.52968E+15,-1,14,27,3,0,-11,-13,-2
1.52968E+15,1,-14,-2,4,3,13,10,3
1.52968E+15,-2,-7,-13,-7,-6,-15,-19,-10
1.52968E+15,5,18,12,12,6,-2,29,21
1.52968E+15,-2,-1,-15,-11,-1,15,-2,-4
1.52968E+15,-1,-8,-15,-4,0,-5,-6,-8
1.52968E+15,-2,4,21,3,-2,-3,-1,8
1.52968E+15,0,-8,-14,-10,1,6,-3,-11
1.52968E+15,3,-9,-4,2,2,-3,7,-2
1.52968E+15,-6,-16,-9,-10,-5,-9,-7,0
1.52968E+15,3,17,67,15,-5,-8,-17,2
1.52968E+15,-4,-22,-29,-10,-4,-11,-5,-8
1.52968E+15,0,-12,-8,1,1,2,-1,1
1.52968E+15,-5,22,3,-1,-3,-1,10,14
1.52968E+15,-2,0,-16,-15,1,3,-5,-12
1.52968E+15,2,-8,20,6,1,-1,-7,-6
1.52968E+15,-4,16,-34,-19,-7,-1,-10,0
1.52968E+15,-2,-28,29,8,0,13,9,0
1.52968E+15,1,8,-10,3,2,-1,4,1
1.52968E+15,-3,9,-6,-9,-5,-3,-5,0
1.52968E+15,1,-6,-5,3,1,0,0,-4
1.52968E+15,3,1,-6,1,-3,-7,-8,-2
1.52968E+15,-2,-12,-9,-4,-6,-4,15,8
1.52968E+15,2,2,0,11,8,8,-10,-9
1.52968E+15,-3,15,21,3,0,-12,2,1
1.52968E+15,-6,-10,-8,0,2,0,-26,-9
1.52968E+15,-4,-16,-37,-12,-3,3,22,7
1.52968E+15,2,10,2,3,-2,-7,3,8
1.52968E+15,0,-2,10,3,1,-3,-15,-5
1.52968E+15,-1,12,8,-8,-2,8,21,1
1.52968E+15,6,13,1,2,-2,-2,-8,-1
1.52968E+15,-6,-29,-16,-5,1,-2,-4,7
1.52968E+15,1,5,36,7,0,-3,2,-6
1.52968E+15,-3,-17,-46,-9,-5,-6,-12,-20
1.52968E+15,5,4,21,15,1,-10,-9,1
1.52968E+15,0,8,-28,-20,-2,18,22,2
1.52968E+15,0,-5,-10,0,-1,-8,-7,3
1.52968E+15,3,15,20,6,-4,-9,6,5
1.52968E+15,1,4,3,6,2,13,4,-6
1.52968E+15,2,8,25,13,5,-11,-10,0
1.52968E+15,-1,21,-11,2,5,18,12,5
1.52968E+15,-1,-2,21,-6,-4,-9,-7,0
1.52968E+15,-4,-3,-7,-5,-6,-11,-13,-6
1.52968E+15,4,-4,-6,0,0,4,15,12
1.52968E+15,-5,-11,-4,-1,-5,-13,-10,-2
1.52968E+15,3,12,1,4,5,-2,0,5
1.52968E+15,0,-11,2,1,1,7,0,0
1.52968E+15,-3,14,-7,-4,-3,3,-6,-5
1.52968E+15,-1,-18,21,2,0,-12,-11,-8
1.52968E+15,1,-9,-29,-12,-2,11,25,10
1.52968E+15,-2,5,2,1,1,-7,-12,-11
1.52968E+15,1,7,9,5,-3,-6,-10,-6
1.52968E+15,2,-12,-13,1,1,12,-3,3
1.52968E+15,-4,5,-3,-4,-2,-1,3,2
1.52968E+15,4,15,14,7,2,-2,4,4
1.52968E+15,-3,-7,9,-6,-4,-3,1,1
1.52968E+15,3,5,-18,1,0,3,12,-1
1.52968E+15,-2,-17,-18,-4,0,-6,-18,-4
1.52968E+15,-1,0,-16,-4,0,1,8,1
1.52968E+15,1,-1,29,8,0,-5,-1,-5
1.52968E+15,-2,5,3,-1,-4,-6,-9,3
1.52968E+15,-3,2,-20,-5,-3,5,16,-9
1.52968E+15,1,-13,-6,4,7,0,-6,3
1.52968E+15,-3,6,15,11,1,0,-17,-13
1.52968E+15,-10,-8,-12,-27,-9,6,26,-8
1.52968E+15,6,3,11,8,3,-4,-8,6
1.52968E+15,1,3,-1,-5,-2,-4,-4,-10
1.52968E+15,1,-4,4,-3,1,6,13,11
1.52968E+15,4,-6,-5,8,4,0,10,5
1.52968E+15,-3,8,2,2,-5,-12,-7,1
1.52968E+15,-4,-7,4,-4,-1,12,6,-12
1.52968E+15,7,9,1,3,1,-6,-10,-3
1.52968E+15,-5,-6,-26,-3,1,-3,0,0
1.52968E+15,-1,-5,19,-1,-4,-1,-8,-7
1.52968E+15,0,-11,-9,-5,-2,-3,1,8
1.52968E+15,-2,2,-14,-7,-3,-1,-2,-4
1.52968E+15,1,0,21,9,5,7,-14,-6
1.52968E+15,5,2,1,16,1,-9,-11,6
1.52968E+15,-1,13,-2,-9,0,8,6,5
1.52968E+15,-3,-5,3,1,4,1,15,-8
1.52968E+15,3,6,-12,-4,-1,-3,8,14
1.52968E+15,0,-3,-15,3,3,9,-13,-3
1.52968E+15,1,11,30,7,-4,-5,0,0
1.52968E+15,-4,-22,3,-4,-5,-6,16,10
1.52968E+15,1,-3,-6,-5,-2,-6,-9,-2
1.52968E+15,0,-4,-6,-1,3,6,6,-5
1.52968E+15,-2,0,-20,-6,-2,-4,9,-1
1.52968E+15,4,-2,9,3,2,5,1,22
1.52968E+15,-5,-6,-1,-2,-3,-10,4,-8
1.52968E+15,-1,-11,-11,-4,-1,7,-6,-2
1.52968E+15,3,0,-3,1,-1,13,31,13
1.52968E+15,-1,7,26,7,-2,-6,-14,-2
1.52968E+15,3,10,8,4,0,-3,-2,4
1.52968E+15,-3,-5,-2,-2,0,-6,2,-1
1.52968E+15,0,-4,-15,-3,2,7,-6,-1
1.52968E+15,-4,7,-10,-5,-4,-7,-4,-8
1.52968E+15,-3,-5,-22,-13,-6,-4,-3,-3
1.52968E+15,0,6,16,-1,-1,7,13,-2
1.52968E+15,2,1,-10,3,-1,-9,-21,-4
1.52968E+15,-1,-1,-1,-5,-1,-2,6,5
1.52968E+15,0,-1,4,3,1,4,-2,2
1.52968E+15,0,4,9,1,3,-1,-1,5
1.52968E+15,-1,-4,5,-3,-2,-3,-2,2
1.52968E+15,0,2,-15,-3,-1,-5,-4,5
1.52968E+15,-3,-1,9,3,-3,5,1,-10
1.52968E+15,-3,1,-1,-4,-2,-3,-5,-4
1.52968E+15,0,0,0,2,8,-3,-1,6
1.52968E+15,-2,-1,6,5,4,-2,11,0
1.52968E+15,2,8,11,12,2,-1,2,4
1.52968E+15,-1,-3,-25,-9,-7,5,-7,1
1.52968E+15,-1,1,6,2,-4,-3,-17,-4
1.52968E+15,-6,-3,5,-16,-9,2,28,-10
1.52968E+15,-4,-3,2,3,-2,-5,-19,-9
1.52968E+15,1,2,-2,1,-4,-10,-11,-3
1.52968E+15,-2,1,2,3,3,-3,-3,2
1.52968E+15,0,-11,-8,3,-1,-2,-13,3
1.52968E+15,7,27,1,-4,2,7,14,7
1.52968E+15,-2,-42,17,5,0,-1,14,-1
1.52968E+15,-3,-8,-21,-12,-8,-9,-1,-6
1.52968E+15,-3,0,-8,-5,-2,-2,-14,-3
1.52968E+15,-3,-11,-15,-3,4,-2,3,0
1.52968E+15,4,21,17,-2,1,-3,-9,7
1.52968E+15,0,2,18,13,3,1,7,-10
1.52968E+15,-4,11,-9,-6,-8,-13,-17,-20
1.52968E+15,0,-5,-8,-1,-1,4,-9,0
1.52968E+15,-3,6,-10,-5,-3,-6,-1,-7
1.52968E+15,3,3,19,6,0,7,0,-7
1.52968E+15,-1,-8,-39,-11,-1,-2,-6,5
1.52968E+15,-1,-5,28,12,2,11,13,-2
1.52968E+15,-1,15,-13,-4,-4,-4,-16,-7
1.52968E+15,-5,-14,-24,-8,-5,-14,-2,5
1.52968E+15,1,-1,12,8,2,1,-5,-5
1.52968E+15,-1,-22,16,0,-4,-7,13,12
1.52968E+15,0,19,26,5,1,10,26,2
1.52968E+15,2,-2,-13,-8,-2,-4,-5,-3
1.52968E+15,2,8,2,-1,2,1,-14,1
1.52968E+15,-1,0,-7,-4,0,0,6,1
1.52968E+15,-1,-13,-16,2,3,4,-13,-10
1.52968E+15,-7,1,20,6,-4,-5,3,5
1.52968E+15,1,2,-14,-8,-4,-9,-10,-3
1.52968E+15,-1,-2,1,1,1,12,-6,-6
1.52968E+15,0,4,-4,0,1,-6,-4,0
1.52968E+15,-1,-11,14,3,-2,-14,-11,-1
1.52968E+15,0,-2,-26,-21,-3,5,-2,-2
1.52968E+15,3,9,-1,-1,2,9,20,2
1.52968E+15,-2,-12,-20,-4,-3,-1,-10,3
1.52968E+15,4,4,-7,-3,-1,5,-13,5
1.52968E+15,1,15,53,21,3,-7,10,0
1.52968E+15,-1,-18,-36,-9,-2,-8,-8,1
1.52968E+15,1,7,15,-2,-1,6,2,10
1.52968E+15,-4,-6,10,3,2,-7,1,5
1.52968E+15,-1,-5,-9,-4,-2,3,6,-5
1.52968E+15,-3,4,-11,-4,-5,0,-8,3
1.52968E+15,2,1,15,3,-6,-7,-4,0
1.52968E+15,-2,-8,-1,1,3,2,3,-6
1.52968E+15,0,6,11,3,1,1,7,7
1.52968E+15,-2,-12,3,-3,-1,-8,9,4
1.52968E+15,-6,0,-17,-13,-8,-2,-7,-9
1.52968E+15,-5,-12,14,2,0,-16,-16,-9
1.52968E+15,1,4,-7,-2,-1,15,18,-11
1.52968E+15,5,25,28,7,-1,-8,-12,-2
1.52968E+15,-4,-34,-50,-18,-2,10,7,0
1.52968E+15,-3,8,-2,-4,0,7,18,7
1.52968E+15,-1,-17,-8,2,0,-2,-10,10
1.52968E+15,-1,11,20,0,-4,5,-2,-2
1.52968E+15,0,5,-2,4,3,0,5,-1
1.52968E+15,-1,2,14,5,-2,-8,-12,-14
1.52968E+15,-1,-7,-8,-9,-5,0,13,8
1.52968E+15,-3,-10,-3,0,3,12,6,8
1.52968E+15,4,14,-15,-1,-2,-11,-14,16
1.52968E+15,4,-3,7,0,-3,4,12,-3
1.52968E+15,-5,-5,-12,2,2,-12,-24,-6
1.52968E+15,-3,19,14,2,-1,-2,-6,-13
1.52968E+15,-1,-13,1,-1,0,-5,-2,5
1.52968E+15,1,4,-14,-6,0,12,6,3
1.52968E+15,2,-2,4,-2,-4,-24,-21,-5
1.52968E+15,0,-7,-34,-6,4,24,16,3
1.52968E+15,1,12,23,5,3,4,-8,-9
1.52968E+15,-1,-7,-7,-1,-1,3,26,3
1.52968E+15,-1,-6,-36,-5,1,-3,-3,-1
1.52968E+15,-4,-17,26,2,-9,-20,-18,-3
1.52968E+15,3,16,21,10,2,3,14,2
1.52968E+15,0,2,-18,-12,-4,5,8,-3
1.52968E+15,2,6,17,15,11,14,7,3
1.52968E+15,-5,9,-24,-10,-3,-21,-17,-3
1.52968E+15,3,-17,15,5,1,6,11,-1
1.52968E+15,-5,4,0,-5,-5,-6,-27,-4
1.52968E+15,0,-1,0,2,1,0,-4,0
1.52968E+15,-1,-7,-6,-1,-3,-4,3,-5
1.52968E+15,0,2,-6,-7,-5,5,-7,-2
1.52968E+15,3,18,-9,-2,7,5,-9,2
1.52968E+15,-12,-19,21,0,-6,0,14,-15
1.52968E+15,0,-6,-15,-6,-2,-6,-6,-3
1.52968E+15,-2,-2,7,1,-3,-16,-4,6
1.52968E+15,3,2,-10,3,2,7,2,0
1.52968E+15,4,12,-8,-5,-1,1,5,0
1.52968E+15,-1,-10,1,6,6,2,9,0
1.52968E+15,-2,0,-9,-4,-3,-3,-3,-6
1.52968E+15,-4,11,35,1,-11,-12,-11,0
1.52968E+15,2,-14,0,6,0,-6,3,8
1.52968E+15,-1,10,-33,-14,-4,8,10,-3
1.52968E+15,0,-5,6,4,2,3,-7,-2
1.52968E+15,-3,9,15,3,1,-6,7,-4
1.52968E+15,-2,-5,1,1,-3,-6,-7,3
1.52968E+15,-2,-3,-9,-5,-7,-9,-15,-9
1.52968E+15,-4,7,-7,-2,5,3,8,-7
1.52968E+15,3,-8,5,-2,-3,-3,2,0
1.52968E+15,-1,-1,-21,-2,-4,-1,2,-2
1.52968E+15,-1,-9,11,13,12,-2,-12,-5
1.52968E+15,0,12,22,5,-1,4,14,2
1.52968E+15,1,-2,-18,-8,-2,-9,-7,3
1.52968E+15,4,5,-1,2,-1,4,-13,1
1.52968E+15,1,9,18,1,-3,8,5,9
1.52968E+15,5,9,23,7,0,-2,-1,2
1.52968E+15,0,-6,-27,-13,0,3,3,7
1.52968E+15,-2,5,5,-2,7,19,5,7
1.52968E+15,2,4,-15,-1,-2,-12,-20,-7
1.52968E+15,-4,-1,4,0,1,5,11,3
1.52968E+15,-2,-5,0,6,0,-4,0,-1
1.52968E+15,0,-2,0,-3,-1,-4,5,-3
1.52968E+15,0,2,-2,0,-1,-4,1,3
1.52968E+15,-1,-8,-5,-7,-5,7,-5,-14
1.52968E+15,-6,-12,-8,-3,-6,-8,-27,-4
1.52968E+15,2,12,-6,1,2,-2,4,3
1.52968E+15,0,0,25,5,2,9,12,-6
1.52968E+15,-4,-32,-18,-3,0,-5,-4,2
1.52968E+15,3,2,1,8,0,-3,18,3
1.52968E+15,1,20,7,-2,-4,4,-17,-10
1.52968E+15,1,2,-2,-12,-6,-1,13,10
1.52968E+15,-1,4,-6,2,-2,-13,-16,1
1.52968E+15,-4,-24,-16,-4,1,19,4,-2
1.52968E+15,-3,1,9,4,0,-3,0,-9
1.52968E+15,-5,-10,-1,-1,-6,-16,4,-2
1.52968E+15,2,16,10,1,5,13,16,0
1.52968E+15,0,6,-6,0,-2,-6,-6,3
1.52968E+15,1,-4,-5,6,1,-4,-13,-5
1.52968E+15,-3,-9,-4,-8,-4,4,2,-3
1.52968E+15,-2,-14,-3,-3,-1,3,-6,2
1.52968E+15,2,-8,-4,2,6,-1,5,2
1.52968E+15,1,16,-4,-2,-2,-7,1,1
1.52968E+15,2,5,17,6,-1,-6,-19,-3
1.52968E+15,0,25,7,-1,-4,-1,13,4
1.52968E+15,-7,-26,-13,-12,-8,-8,4,-2
1.52968E+15,0,1,8,0,5,3,-7,6
1.52968E+15,0,-1,-19,3,4,0,-2,3
1.52968E+15,0,0,-10,7,4,2,-7,-3
1.52968E+15,0,10,29,-4,-6,-8,1,-1
1.52968E+15,1,-10,-13,-8,-8,-9,5,14
1.52968E+15,-3,-4,-11,-12,-7,0,10,-1
1.52968E+15,0,-7,-1,5,3,0,-8,4
1.52968E+15,1,-8,-21,1,6,2,-1,-2
1.52968E+15,-1,28,42,7,-6,-10,9,5
1.52968E+15,-2,-8,-8,-5,-3,-13,-7,-3
1.52968E+15,3,18,0,-5,-2,3,-12,-8
1.52968E+15,2,2,2,5,3,1,17,10
1.52968E+15,0,-2,-3,1,-2,0,5,-2
1.52968E+15,0,-2,-6,4,3,-7,-1,-1
1.52968E+15,-2,3,-8,1,3,6,-7,-8
1.52968E+15,-1,1,18,5,-4,0,1,0
1.52968E+15,-3,-11,-12,-8,-5,-4,-10,-5
1.52968E+15,3,7,15,5,-1,-5,-14,5
1.52968E+15,3,-11,-7,3,7,6,28,12
1.52968E+15,5,20,-18,-12,-1,0,-1,-2
1.52968E+15,-6,-30,3,-3,-7,-9,1,-7
1.52968E+15,-6,-6,6,-2,-3,2,0,3
1.52968E+15,-4,-12,-22,-4,-3,-7,-1,0
1.52968E+15,0,19,22,0,-3,-5,-10,-8
1.52968E+15,-1,-12,-20,-3,2,-8,18,4
1.52968E+15,2,4,0,2,6,16,6,0
1.52968E+15,-5,-4,1,-2,-2,-6,1,-1
1.52968E+15,0,-3,-7,5,0,-4,-9,-3
1.52968E+15,-2,10,14,2,-1,-3,4,-4
1.52968E+15,0,-14,-6,-4,0,9,-1,-7
1.52968E+15,1,-5,0,0,-2,-9,9,6
1.52968E+15,0,-10,13,5,0,-4,2,-1
1.52968E+15,3,7,1,6,1,4,-4,2
1.52968E+15,-2,21,1,-1,-3,-4,-2,-20
1.52968E+15,3,2,9,2,2,7,-7,2
1.52968E+15,-4,-4,-31,-14,-4,-9,-1,-3
1.52968E+15,3,0,15,-1,-2,6,-5,8
1.52968E+15,-2,12,17,4,0,4,8,-6
1.52968E+15,-11,-10,-20,-6,0,-4,-18,-11
1.52968E+15,-1,1,20,12,4,2,-5,-1
1.52968E+15,2,3,-3,4,-3,-8,-7,-4
1.52968E+15,-3,-20,-22,-14,-8,-12,-3,5
1.52968E+15,6,2,14,5,1,5,10,-4
1.52968E+15,-1,5,3,8,4,3,-6,-2
1.52968E+15,-2,-17,-15,-18,-3,3,-1,-3
1.52968E+15,3,5,16,6,-2,8,-1,2
1.52968E+15,-4,10,1,3,5,-1,-14,-3
1.52968E+15,4,7,-7,-16,-7,-13,15,5
1.52968E+15,-2,-7,-2,6,5,6,21,-1
1.52968E+15,1,-6,-15,-5,3,10,-1,9
1.52968E+15,3,-10,6,0,-3,-3,-3,10
1.52968E+15,2,4,0,5,1,-4,1,-4
1.52968E+15,-3,11,-6,3,3,-1,-4,9
1.52968E+15,0,-1,-2,-2,-1,0,6,0
1.52968E+15,-4,-8,12,-8,-8,-7,-2,-9
1.52968E+15,1,1,-23,1,1,-1,-3,3
1.52968E+15,-2,-11,0,-2,-3,-2,-8,-9
1.52968E+15,-1,3,9,9,1,-3,-4,-2
1.52968E+15,1,0,-11,-10,-7,-10,-3,4
1.52968E+15,-2,0,3,2,0,-8,-10,-6
1.52968E+15,-3,-8,-32,-7,-1,6,-2,-4
1.52968E+15,-4,0,10,1,0,1,9,-1
1.52968E+15,-3,0,21,5,4,19,12,0
1.52968E+15,-1,0,-7,-6,-3,0,-1,1
1.52968E+15,-2,-5,-14,-6,-2,-1,-3,-1
1.52968E+15,5,-5,-2,7,5,-1,10,9
1.52968E+15,3,0,3,6,0,-2,15,9
1.52968E+15,1,-9,-27,-17,-7,6,-13,13
1.52968E+15,-3,3,5,5,3,-2,3,-11
1.52968E+15,-5,0,-5,-7,-8,-9,-3,-11
1.52968E+15,-1,-9,9,-1,-2,-6,-14,-10
1.52968E+15,-2,-3,0,4,4,13,15,-1
1.52968E+15,4,11,14,10,3,0,-8,16
1.52968E+15,1,-25,-1,-5,3,-1,3,16
1.52968E+15,1,14,-7,-3,-5,-6,1,-5
1.52968E+15,-4,0,33,11,2,-4,0,-3
1.52968E+15,-2,-17,-38,-8,-2,-8,0,-4
1.52968E+15,3,32,20,14,6,7,-8,-2
1.52968E+15,-1,-1,3,2,-5,-6,0,-2
1.52968E+15,-5,-12,-21,-13,-8,-8,-3,-5
1.52968E+15,2,13,27,4,2,3,6,0
1.52968E+15,-3,-18,-15,6,6,2,-5,-13
1.52968E+15,-5,-16,-26,3,2,9,17,0
1.52968E+15,2,5,23,1,2,-7,-18,-12
1.52968E+15,-5,-6,9,-1,-7,-8,3,1
1.52968E+15,1,-1,-24,-13,-2,-4,-18,-3
1.52968E+15,-4,2,7,-4,0,0,-9,2
1.52968E+15,3,3,-1,8,6,7,4,-3
1.52968E+15,-2,-12,15,0,-2,-1,-6,-7
1.52968E+15,-2,0,-28,-20,-10,-12,3,-5
1.52968E+15,-1,-8,-13,-4,0,2,1,4
1.52968E+15,7,-12,16,11,3,-1,6,11
1.52968E+15,1,39,25,-1,-7,-6,-7,-6
1.52968E+15,-2,2,21,11,3,3,6,-9
1.52968E+15,3,5,-2,-3,-1,-5,-5,-6
1.52968E+15,-6,-13,-19,-7,-5,-5,2,2
1.52968E+15,1,-8,-2,3,4,0,-1,6
1.52968E+15,2,0,-4,2,1,1,-3,3
1.52968E+15,2,15,7,-2,-1,-5,-1,-5
1.52968E+15,5,4,-7,2,1,9,-8,-1
1.52968E+15,0,-11,-9,-2,-4,-6,-1,2
1.52968E+15,0,-4,9,1,-2,-14,-8,4
1.52968E+15,-3,-1,-3,-1,3,9,7,-2
1.52968E+15,-6,0,10,-1,1,-11,4,-16
1.52968E+15,3,11,-4,3,2,2,-4,-5
1.52968E+15,-2,-6,-4,-5,-8,0,13,-2
1.52968E+15,1,4,-1,-1,-6,-15,-14,-6
1.52968E+15,-5,2,5,-1,-1,1,-1,-1
1.52968E+15,0,-7,7,4,3,0,-11,-5
1.52968E+15,0,8,-10,-7,0,-1,10,1
1.52968E+15,-6,-11,-26,-2,0,-3,-4,-1
1.52968E+15,-1,2,4,-4,-4,-2,0,7
1.52968E+15,-1,5,28,11,1,-6,-7,-6
1.52968E+15,-2,-3,-12,-19,-7,5,8,6
1.52968E+15,0,-7,-13,0,4,6,-2,-3
1.52968E+15,6,12,17,3,1,0,-5,-2
1.52968E+15,-5,-13,-1,-8,-3,-1,7,5
1.52968E+15,-1,-1,7,8,6,11,-2,-2
1.52968E+15,-1,6,-3,-5,-4,-2,10,-4
1.52968E+15,-2,-5,6,0,-5,-13,-17,-3
1.52968E+15,-3,-4,-17,-7,-3,-8,-21,-14
1.52968E+15,1,12,-3,0,1,9,4,2
1.52968E+15,5,0,14,2,3,0,-15,-5
1.52968E+15,-3,-7,-2,0,-2,2,13,3
1.52968E+15,-3,-13,-22,-9,-2,-2,-5,0
1.52968E+15,-1,14,6,5,-1,-9,-15,-7
1.52968E+15,1,11,16,1,-1,8,-1,1
1.52968E+15,-4,-6,10,-3,-4,-6,2,4
1.52968E+15,-1,2,-29,-9,0,8,21,0
1.52968E+15,1,-8,17,5,-2,-2,-20,0
1.52968E+15,-1,-13,-18,1,5,7,16,6
1.52968E+15,1,1,17,3,2,-1,3,3
1.52968E+15,0,14,-11,-3,-2,10,10,8
1.52968E+15,2,-1,37,18,-2,-13,-6,5
1.52968E+15,-2,-3,-37,-22,-9,-8,-2,0
1.52968E+15,0,-10,-23,-4,1,4,5,-2
1.52968E+15,4,15,6,4,4,-4,-1,6
1.52968E+15,-1,0,18,6,7,17,10,1
1.52968E+15,-2,8,21,7,-2,-3,-4,-12
1.52968E+15,-1,3,-23,-5,-5,-15,-17,2
1.52968E+15,-1,0,12,2,3,8,-1,-3
1.52968E+15,-6,-12,-41,-7,0,2,-3,-3
1.52968E+15,0,2,45,8,0,-7,-6,5
1.52968E+15,1,8,17,0,-3,7,13,0
1.52968E+15,4,-21,-12,-2,-5,-6,-3,6
1.52968E+15,-7,2,-41,-14,-1,-9,-6,-23
1.52968E+15,-1,-1,14,3,3,10,-6,2
1.52968E+15,-2,5,-19,-5,3,-3,1,1
1.52968E+15,-2,-6,29,4,0,7,8,-8
1.52968E+15,4,-12,-9,3,0,-4,-2,1
1.52968E+15,-1,-8,-27,-11,-1,1,4,5
1.52968E+15,-3,-9,16,9,0,-1,-16,-12
1.52968E+15,-2,18,16,-4,-7,-10,-9,2
1.52968E+15,-2,16,-5,-15,-5,8,9,3
1.52968E+15,0,-12,-3,5,0,-13,-7,-7
1.52968E+15,-1,2,-15,-6,0,1,-5,7
1.52968E+15,0,-7,-11,-2,1,0,9,2
1.52968E+15,2,2,7,0,0,-4,3,-1
1.52968E+15,-1,-8,-17,-1,4,4,2,20
1.52968E+15,6,14,13,0,1,4,10,3
1.52968E+15,-3,-1,3,2,-4,-6,-4,-19
1.52968E+15,-1,-11,-11,-9,-4,0,2,2
1.52968E+15,4,7,-9,-3,-2,-3,11,8
1.52968E+15,0,-8,14,9,7,3,8,3
1.52968E+15,1,11,1,-1,-3,-5,-12,-3
1.52968E+15,-3,-15,-5,-9,-10,-4,-10,1
1.52968E+15,-7,-14,-12,-1,0,-2,-9,-3
1.52968E+15,2,10,-8,1,6,9,11,-2
1.52968E+15,-3,-18,6,5,4,3,6,12
1.52968E+15,5,15,0,8,2,0,-6,-3
1.52968E+15,-8,-19,27,1,-11,-16,-8,0
1.52968E+15,-7,-8,-14,-5,-4,5,-14,-9
1.52968E+15,1,-3,-14,-9,3,-2,18,9
1.52968E+15,7,6,3,7,5,-1,-1,7
1.52968E+15,4,9,-1,2,2,9,3,-6
1.52968E+15,-5,-9,-7,2,-2,-4,1,-4
1.52968E+15,-2,-13,-7,-7,-9,-5,13,-1
1.52968E+15,2,12,4,6,8,9,-5,5
1.52968E+15,-6,-14,-2,-5,-6,-7,-1,-7
1.52968E+15,2,-4,-4,-7,-6,-8,-10,-5
1.52968E+15,0,8,3,3,3,0,3,6
1.52968E+15,-1,-5,5,2,-2,2,6,3
1.52968E+15,4,3,5,7,2,-1,-15,-2
1.52968E+15,-3,4,15,7,5,4,18,7
1.52968E+15,-3,-2,-22,-12,-2,-4,-16,-17
1.52968E+15,-3,-14,-1,1,-4,-17,-19,-5
1.52968E+15,2,5,4,-5,-1,-1,13,2
1.52968E+15,-1,6,-1,-3,-1,0,-6,-2
1.52968E+15,-6,-24,-2,5,-1,-14,-6,-4
1.52968E+15,2,10,-5,-9,-2,12,0,-1
1.52968E+15,4,2,-14,-2,2,4,16,1
1.52968E+15,-9,-33,-6,0,-1,-5,-3,-5
1.52968E+15,5,17,33,6,2,1,-5,2
1.52968E+15,-5,-16,-26,-5,-2,2,0,-6
1.52968E+15,0,3,8,1,-1,-3,2,1
1.52968E+15,5,6,-7,5,7,2,7,5
1.52968E+15,-3,2,-6,-13,-6,1,-7,6
1.52968E+15,-1,3,25,3,-3,-4,6,2
1.52968E+15,0,13,9,3,7,6,-10,-1
1.52968E+15,-4,-13,-28,-7,-5,-1,5,-7
1.52968E+15,3,6,-4,3,-5,-6,-8,-1
1.52968E+15,-2,1,21,6,3,6,-6,-5
1.52968E+15,2,6,19,11,-1,-7,29,13
1.52968E+15,2,13,-11,-16,-1,13,-5,7
1.52968E+15,-6,-8,-20,-6,-3,-6,-3,-10
1.52968E+15,4,5,2,-4,-3,8,4,5
1.52968E+15,-5,0,7,7,4,-3,-7,-5
1.52968E+15,4,11,17,5,-1,-1,1,4
1.52968E+15,2,-8,-26,-12,-3,-2,-2,1
1.52968E+15,-9,-27,10,0,-6,-14,-2,-1
1.52968E+15,-3,-6,-14,-5,-3,3,-6,-8
1.52968E+15,2,6,2,0,-4,-6,-3,0
1.52968E+15,1,16,17,11,4,1,-8,-3
1.52968E+15,0,12,3,-2,0,1,3,1
1.52968E+15,2,-12,3,-3,3,1,-7,-2
1.52968E+15,-3,9,-7,-3,-1,-6,-6,-7
1.52968E+15,0,-1,11,4,6,2,12,3
1.52968E+15,1,1,-11,-2,-4,-8,0,4
1.52968E+15,-2,-2,-10,-9,-3,7,5,-5
1.52968E+15,3,-1,6,-1,-3,-14,-5,10
1.52968E+15,-3,3,-13,0,0,7,17,-11
1.52968E+15,-3,1,1,4,2,-2,-11,-2
1.52968E+15,0,4,-1,-13,-10,-6,-2,-2
1.52968E+15,2,-16,2,9,1,-4,2,-1
1.52968E+15,0,20,-6,0,3,7,3,9
1.52968E+15,-5,3,12,-3,-4,-3,1,-3
1.52968E+15,2,-2,-19,1,-2,-4,-8,-1
1.52968E+15,0,-5,13,-1,-1,2,-3,-2
1.52968E+15,6,17,16,8,1,-5,-5,2
1.52968E+15,-5,-7,-2,4,0,-4,1,-13
1.52968E+15,-2,-7,-17,2,4,10,2,1
1.52968E+15,-2,6,-5,-6,-5,-3,9,-6
1.52968E+15,-1,-11,-21,-3,-1,-5,-11,0
1.52968E+15,3,18,34,13,7,0,5,4
1.52968E+15,0,6,26,-4,-4,-6,-26,-8
1.52968E+15,-2,-20,-19,-2,-1,1,8,6
1.52968E+15,-3,-6,8,-7,-1,7,7,1
1.52968E+15,2,-6,-22,-2,0,2,-9,0
1.52968E+15,-6,9,-10,-7,-4,-6,1,-2
1.52968E+15,3,10,4,2,1,-3,1,1
1.52968E+15,-3,-12,-1,-1,-3,4,-19,6
1.52968E+15,2,2,-6,2,-1,7,24,0
1.52968E+15,0,-4,-1,3,3,-13,-6,-4
1.52968E+15,0,9,0,-2,3,23,5,1
1.52968E+15,-1,-17,-17,-6,-4,-6,14,2
1.52968E+15,3,4,37,11,3,-3,-11,0
1.52968E+15,-2,5,-27,-17,-7,-7,-10,-2
1.52968E+15,-3,-1,-2,2,0,-9,-14,-7
1.52968E+15,-7,-12,11,2,0,-3,2,-5
1.52968E+15,-1,-1,-4,-1,-1,2,3,4
1.52968E+15,2,23,16,11,3,3,-4,-3
1.52968E+15,-1,3,9,-2,-1,-6,1,-2
1.52968E+15,3,1,-20,-8,-5,-7,-4,-4
1.52968E+15,-1,-13,-31,-18,-1,-2,16,11
1.52968E+15,-3,1,21,9,-2,2,2,6
1.52968E+15,0,3,-11,-3,-3,-8,-12,-5
1.52968E+15,-1,-2,11,10,4,-6,-12,-7
1.52968E+15,-4,-5,-7,-6,-2,-2,-7,-4
1.52968E+15,2,0,-19,2,-1,3,-2,-7
1.52968E+15,-3,-15,-2,-2,-3,-1,-3,3
1.52968E+15,-2,21,1,1,-5,-13,-8,-12
1.52968E+15,-3,1,-15,-4,1,9,1,-1
1.52968E+15,-5,-20,-15,-9,-4,-10,0,2
1.52968E+15,0,7,15,5,-1,9,1,2
1.52968E+15,4,19,21,4,2,-6,-5,-7
1.52968E+15,-3,-12,-9,-3,-1,-1,14,10
1.52968E+15,1,9,14,6,5,6,7,4
1.52968E+15,-3,-11,-52,-19,-3,-4,-5,-12
1.52968E+15,2,18,40,2,-8,-5,-12,1
1.52968E+15,2,7,10,5,4,1,-5,-4
1.52968E+15,0,-6,2,0,-1,2,7,-9
1.52968E+15,-1,-11,-14,-2,0,-4,-2,0
1.52968E+15,-5,-20,10,3,1,-2,-5,-3
1.52968E+15,2,-2,-26,-13,-8,-15,-13,-8
1.52968E+15,5,18,23,7,4,9,-2,-4
1.52968E+15,-10,-43,-9,-6,-6,-11,-4,9
1.52968E+15,-1,-8,-8,3,2,2,6,-5
1.52968E+15,-2,0,-3,1,-2,-2,-3,0
1.52968E+15,-1,-10,-15,-9,-6,-10,-9,-1
1.52968E+15,1,10,26,11,3,8,17,5
1.52968E+15,0,-1,-29,-13,0,-3,-3,2
1.52968E+15,1,-10,10,5,0,4,-5,6
1.52968E+15,-5,8,-6,-7,-6,-4,11,-5
1.52968E+15,6,21,42,12,4,6,6,-1
1.52968E+15,-2,-17,-46,-22,-3,-1,-1,2
1.52968E+15,0,-13,19,6,0,-2,0,-2
1.52968E+15,-1,5,2,-2,-2,-1,-19,2
1.52968E+15,-4,7,10,8,3,0,12,5
1.52968E+15,3,19,-9,0,-2,-4,-12,-2
1.52968E+15,-7,-10,-7,-4,-3,5,-4,-6
1.52968E+15,2,-5,0,5,0,-1,1,7
1.52968E+15,2,-2,-4,4,4,-1,5,-1
1.52968E+15,3,5,-15,-17,-7,-7,-4,4
1.52968E+15,4,10,-11,1,5,13,11,8
1.52968E+15,-2,-10,19,6,1,4,-1,1
1.52968E+15,4,24,3,0,1,5,0,-4
1.52968E+15,-2,-11,25,9,2,0,6,4
1.52968E+15,1,1,2,0,-2,-12,-1,0
1.52968E+15,-4,-17,-14,-11,-5,-10,4,-3
1.52968E+15,4,13,-4,-4,5,8,-13,-5
1.52968E+15,-4,-21,1,5,-2,-1,3,1
1.52968E+15,-2,15,-1,-6,-4,1,-4,4
1.52968E+15,-5,-5,2,5,1,-4,-8,-15
1.52968E+15,0,-4,-10,6,0,-11,-3,1
1.52968E+15,-4,-20,-25,-12,-2,1,0,-10
1.52968E+15,-1,28,41,11,-2,-3,7,-1
1.52968E+15,2,-16,-3,-2,-1,-9,6,10
1.52968E+15,-2,-2,16,7,-1,8,1,-1
1.52968E+15,2,-9,-46,-21,-3,-3,-1,2
1.52968E+15,-3,0,-14,-9,-6,-5,-6,-8
1.52968E+15,-2,1,15,5,2,-6,11,0
1.52968E+15,0,4,4,0,2,5,-23,-13
1.52968E+15,2,9,23,19,10,9,12,3
1.52968E+15,1,-11,-14,-13,-6,0,-3,3
1.52968E+15,5,25,8,3,-1,-5,-14,3
1.52968E+15,-7,-23,-32,-12,-5,-10,7,2
1.52968E+15,1,3,39,14,2,-2,7,3
1.52968E+15,-4,0,1,7,1,-6,-9,-12
1.52968E+15,5,-4,-12,2,2,10,-3,3
1.52968E+15,0,8,2,-3,-5,4,-6,4
1.52968E+15,-2,1,12,-2,-7,-4,9,5
1.52968E+15,-9,-5,-5,0,4,-10,-12,-13
1.52968E+15,-4,-17,-9,-3,2,7,9,2
1.52968E+15,3,6,-5,0,-2,-7,-8,1
1.52968E+15,-1,-3,-10,-2,-2,3,12,1
1.52968E+15,4,17,18,-2,-4,6,-1,4
1.52968E+15,-1,-25,-26,-5,-2,-10,-12,-1
1.52968E+15,-9,27,21,-2,-6,-13,-7,-3
1.52968E+15,-4,-8,22,0,-3,-1,1,-5
1.52968E+15,4,12,-19,1,7,2,9,0
1.52968E+15,-1,-3,6,1,-3,-6,-2,3
1.52968E+15,-6,-26,-35,-13,-3,9,6,-11
1.52968E+15,3,19,15,5,-1,-1,2,10
1.52968E+15,0,-3,7,4,-1,-11,0,3
1.52968E+15,-2,1,0,-2,2,9,5,-5
1.52968E+15,3,-2,6,-2,-3,-11,-1,9
1.52968E+15,-3,4,-13,-3,-3,-1,-8,-2
1.52968E+15,2,-8,-3,0,-1,5,5,0
1.52968E+15,2,12,-2,-2,0,-2,8,5
1.52968E+15,3,-13,-6,1,1,-9,1,4
1.52968E+15,-1,5,16,10,6,5,-12,-21
1.52968E+15,-1,0,-17,-3,-2,-5,-5,2
1.52968E+15,-5,-4,29,-6,-9,-12,-15,-3
1.52968E+15,-1,6,-5,-1,2,6,20,1
1.52968E+15,2,13,3,1,1,7,4,3
1.52968E+15,-5,-16,10,4,-1,-7,0,-6
1.52968E+15,-1,10,-5,1,-1,10,1,-5
1.52968E+15,3,7,5,-1,-5,-10,-2,1
1.52968E+15,0,-20,-25,-3,3,1,-2,3
1.52968E+15,0,8,-9,1,5,14,16,4
1.52968E+15,1,2,31,4,-2,-5,-2,0
1.52968E+15,0,6,9,3,-2,-2,-6,-2
1.52968E+15,2,8,-5,0,-2,1,-1,20
1.52968E+15,1,-16,-18,-7,1,1,13,1
1.52968E+15,-1,3,-21,1,2,-6,10,2
1.52968E+15,-4,11,12,1,0,0,-7,-6
1.52968E+15,1,-14,15,5,2,-2,2,4
1.52968E+15,2,7,0,-7,-7,-1,3,-2
1.52968E+15,0,10,-19,-8,-5,-2,1,-4
1.52968E+15,2,-12,0,1,2,10,4,7
1.52968E+15,-2,-14,-14,-3,1,-2,15,-1
1.52968E+15,3,-4,34,13,0,-1,-20,4
1.52968E+15,-5,-5,0,-11,-4,-4,6,-12
1.52968E+15,-3,-27,-25,-10,-3,-5,-11,-9
1.52968E+15,-1,2,-11,-5,-2,-2,-3,-4
1.52968E+15,-1,15,28,8,2,-1,8,6
1.52968E+15,2,-7,5,6,1,-10,-2,5
1.52968E+15,-3,-17,-41,-14,-1,4,0,-4
1.52968E+15,0,22,6,6,6,3,3,-3
1.52968E+15,-1,-15,-11,-6,-3,-18,-15,-5
1.52968E+15,-5,-23,-15,-5,-2,13,12,5
1.52968E+15,0,10,11,5,-1,-9,-5,-4
1.52968E+15,3,10,-7,3,3,4,-17,-3
1.52968E+15,-1,9,-7,4,-2,5,-5,2
1.52968E+15,0,3,29,8,3,-6,4,8
1.52968E+15,1,1,-1,-1,-3,3,0,-2
1.52968E+15,-7,-18,-23,-13,-9,-13,-2,-5
1.52968E+15,-4,-7,-18,-2,1,1,-10,-10
1.52968E+15,6,28,12,1,-2,-4,11,9
1.52968E+15,-4,-6,3,0,1,-1,-1,2
1.52968E+15,-1,-14,-1,0,3,2,0,4
1.52968E+15,5,-2,-2,-3,0,-3,-4,3
1.52968E+15,-1,-14,-5,1,0,4,-3,1
1.52968E+15,2,30,9,-2,-2,-3,6,-1
1.52968E+15,-1,-8,-2,3,-3,-6,-14,2
1.52968E+15,1,2,-9,-4,-1,6,1,-5
1.52968E+15,-1,-4,-27,-8,-2,-13,-15,-5
1.52968E+15,2,5,31,5,0,5,6,-1
1.52968E+15,-3,-11,8,1,-1,-1,5,1
1.52968E+15,-2,1,-6,-2,-8,-6,-9,-5
1.52968E+15,1,12,-14,-4,0,-1,-12,5
1.52968E+15,-3,-7,7,5,4,-7,-5,-9
1.52968E+15,-2,-8,0,-2,1,5,5,10
1.52968E+15,-4,-12,12,0,-2,3,17,-3
1.52968E+15,0,-5,-19,-2,-3,0,-9,-3
1.52968E+15,1,-13,-1,1,-3,-12,-10,2
1.52968E+15,5,30,25,10,3,4,4,-7
1.52968E+15,-3,-13,-36,-15,0,2,-1,4
1.52968E+15,1,0,8,0,2,4,1,-1
1.52968E+15,0,-16,5,-1,-3,-4,5,-4
1.52968E+15,1,28,34,5,-5,-9,-7,0
1.52968E+15,-1,-10,-20,-2,3,5,-6,4
1.52968E+15,-5,1,3,-11,-10,-11,4,-22
1.52968E+15,2,11,-1,-6,-6,1,-11,1
1.52968E+15,-6,-17,1,4,5,2,1,-3
1.52968E+15,0,7,0,6,7,5,21,7
1.52968E+15,-4,-4,-27,-10,-3,-5,-29,-2
1.52968E+15,-1,3,6,2,-2,-1,-6,-6
1.52968E+15,-5,-14,-5,-9,-7,-6,0,-12
1.52968E+15,3,3,1,6,3,-6,-12,-6
1.52968E+15,0,0,18,4,1,8,6,1
1.52968E+15,-1,-8,-15,-6,-4,-9,3,14
1.52968E+15,3,6,-2,2,2,-1,-7,2
1.52968E+15,-7,-1,-7,1,-3,4,10,-11
1.52968E+15,-1,-9,-10,1,3,0,-2,-1
1.52968E+15,2,5,3,-1,-2,1,-2,3
1.52968E+15,-2,4,-6,-4,-6,-17,-1,-4
1.52968E+15,0,2,6,4,4,27,16,12
1.52968E+15,-3,-17,-5,3,4,9,-4,4
1.52968E+15,-2,9,-3,-1,-1,-2,-4,-4
1.52968E+15,-4,-7,1,-2,-3,0,10,-2
1.52968E+15,5,17,46,18,5,-10,-20,-4
1.52968E+15,0,-19,-48,-7,0,8,3,1
1.52968E+15,0,12,13,-7,-5,-7,3,7
1.52968E+15,-2,-18,-2,-3,-6,-2,0,-13
1.52968E+15,-5,1,4,-6,-3,-6,3,-2
1.52968E+15,3,13,14,6,3,0,13,0
1.52968E+15,-1,0,4,4,-1,-10,-18,-3
1.52968E+15,0,-16,-10,-4,-4,3,-5,1
1.52968E+15,-2,2,8,3,2,-3,-2,0
1.52968E+15,1,0,-15,-11,-3,4,6,2
1.52968E+15,0,-3,13,9,3,0,10,6
1.52968E+15,-3,8,-24,-12,1,20,0,-2
1.52968E+15,1,-25,-19,-13,-5,0,-6,1
1.52968E+15,-1,3,31,14,-1,-10,-4,1
1.52968E+15,4,17,1,2,3,14,6,7
1.52968E+15,1,-8,4,7,1,3,-9,6
1.52968E+15,1,-5,-21,-10,-4,-5,5,-6
1.52968E+15,-6,-8,10,-2,-6,-3,-8,2
1.52968E+15,-2,-18,-27,-12,-3,-1,1,-8
1.52968E+15,5,9,8,11,8,14,9,10
1.52968E+15,4,14,0,-4,-6,-7,-13,3
1.52968E+15,-1,15,16,-2,-4,-2,7,-10
1.52968E+15,-1,-10,2,5,7,9,5,4
1.52968E+15,0,13,-12,-2,0,6,-1,0
1.52968E+15,-4,-29,-3,0,-4,-3,4,1
1.52968E+15,-1,17,28,10,-3,-10,-7,-9
1.52968E+15,2,-5,-11,1,2,7,-2,4
1.52968E+15,0,10,-17,-7,0,14,25,2
1.52968E+15,-3,-13,14,-3,-2,-9,-20,-3
1.52968E+15,1,-5,-4,4,7,6,2,0
1.52968E+15,-4,-1,-3,-4,-3,-9,-19,-2
1.52968E+15,2,2,1,-4,-1,-2,-7,-1
1.52968E+15,-5,8,-2,-1,0,-6,1,-11
1.52968E+15,0,-17,-13,-4,-1,0,0,1
1.52968E+15,-2,15,13,1,-4,-4,1,-9
1.52968E+15,1,-15,-20,-11,-1,10,4,1
1.52968E+15,-2,-6,-13,-9,-4,-5,-1,1
1.52968E+15,4,19,15,5,1,2,-6,1
1.52968E+15,-2,-5,-26,-6,-4,-10,3,-3
1.52968E+15,-3,-2,40,23,8,9,-1,-5
1.52968E+15,2,18,22,-1,-2,4,7,-2
1.52968E+15,-4,-10,-27,-10,-4,-1,19,7
1.52968E+15,0,1,-12,5,4,1,-2,1
1.52968E+15,-3,-10,10,-11,-8,-1,8,0
1.52968E+15,5,15,30,15,4,-5,-16,3
1.52968E+15,2,-13,5,8,6,6,12,9
1.52968E+15,-2,-12,-35,-14,-5,-8,1,-7
1.52968E+15,0,-8,-15,4,8,10,0,1
1.52968E+15,-2,7,-3,0,-6,-9,8,-6
1.52968E+15,-2,-2,10,-14,-8,0,-10,-5
1.52968E+15,-2,-12,16,1,5,1,5,5
1.52968E+15,0,6,-16,-4,-1,-4,8,-4
1.52968E+15,4,1,0,6,5,2,-33,-2
1.52968E+15,-4,-15,-21,0,3,-6,-13,-8
1.52968E+15,-1,2,5,-1,-5,-9,11,-2
1.52968E+15,0,4,19,-1,-1,5,2,0
1.52968E+15,-4,-9,-20,-13,-7,-4,-11,-6
1.52968E+15,1,7,7,3,-1,-4,16,14
1.52968E+15,2,5,20,9,6,2,-9,-3
1.52968E+15,2,10,-25,-5,0,3,19,3
1.52968E+15,-6,-11,4,0,0,-15,-3,-6
1.52968E+15,2,2,-23,-12,0,2,-21,-7
1.52968E+15,-4,-6,3,0,-3,-1,6,-5
1.52968E+15,1,-9,3,3,-10,-19,-9,3
1.52968E+15,-2,19,7,2,5,13,-5,-17
1.52968E+15,-3,-8,-5,-3,0,-2,5,1
1.52968E+15,6,16,2,4,-1,-3,-3,7
1.52968E+15,-6,-13,18,11,1,-8,-14,-7
1.52968E+15,0,5,-15,-15,-8,-1,23,6
1.52968E+15,-9,0,-5,-3,-6,-14,-39,-20
1.52968E+15,1,-10,-6,-1,2,18,11,-3
1.52968E+15,0,9,14,-3,-5,-9,-3,5
1.52968E+15,1,-12,-8,0,4,1,6,7
1.52968E+15,5,24,7,10,7,9,3,-5
1.52968E+15,-8,-9,-15,-7,-6,-11,7,0
1.52968E+15,5,45,32,5,2,-3,-13,-2
1.52968E+15,-6,-42,-16,5,-7,-1,5,4
1.52968E+15,-1,-9,-33,-15,-3,3,11,3
1.52968E+15,3,-1,14,5,7,13,17,12
1.52968E+15,4,18,-2,2,4,1,-9,-5
1.52968E+15,-3,-13,1,-4,-1,1,1,1
1.52968E+15,2,-1,5,4,-2,-5,14,10
1.52968E+15,-2,-1,0,0,-2,5,-28,-10
1.52968E+15,-3,-18,-7,-6,0,2,15,1
1.52968E+15,5,11,1,2,4,5,18,12
1.52968E+15,3,-4,7,7,0,-7,-11,0
1.52968E+15,-5,-5,11,-3,-3,-6,-1,-4
1.52968E+15,-1,-8,-35,-19,-9,-13,-12,5
1.52968E+15,-3,-3,-7,6,6,17,3,-7
1.52968E+15,-3,-3,1,-6,0,-4,5,6
1.52968E+15,6,38,50,13,3,-9,-11,-2
1.52968E+15,-6,-31,-17,-9,-8,-3,-4,1
1.52968E+15,10,33,8,-2,-2,-14,-1,5
1.52968E+15,-1,-7,2,1,0,20,-1,3
1.52968E+15,1,7,-13,0,5,-3,5,-2
1.52968E+15,5,-3,2,9,11,14,-3,15
1.52968E+15,3,-7,-2,5,-1,-4,10,-8
1.52968E+15,-4,5,-27,-8,-3,5,5,10
1.52968E+15,-2,0,29,3,-10,-11,-13,-7
1.52968E+15,-1,7,7,1,0,-8,-10,-10
1.52968E+15,0,-1,-8,-3,3,-1,-11,1
1.52968E+15,1,5,18,2,-3,-4,5,-7
1.52968E+15,-6,-21,-35,-11,-7,-7,-3,-2
1.52968E+15,-2,2,5,2,0,-4,16,-8
1.52968E+15,-2,-9,-5,-3,1,1,-4,1
1.52968E+15,-3,12,20,9,1,-5,-4,-7
1.52968E+15,2,9,-16,2,4,2,0,-1
1.52968E+15,-2,0,-16,-11,-7,-6,-1,-3
1.52968E+15,-2,-4,9,-1,-4,-8,1,-2
1.52968E+15,1,-6,9,1,3,6,-10,-6
1.52968E+15,2,-20,1,10,2,0,4,0
1.52968E+15,-4,5,14,-9,-7,-1,6,1
1.52968E+15,1,7,-8,-10,-1,7,3,3
1.52968E+15,2,-5,-17,-3,-2,-2,27,8
1.52968E+15,4,14,23,2,-1,-1,-13,1
1.52968E+15,-1,-15,-24,0,2,-2,-22,-11
1.52968E+15,-2,-6,23,7,-1,-11,13,7
1.52968E+15,1,5,7,4,4,2,3,-1
1.52968E+15,-4,-24,-15,-10,-1,5,-2,-16
1.52968E+15,2,14,1,1,-4,-4,-8,6
1.52968E+15,0,15,5,13,3,-6,22,8
1.52968E+15,3,-4,16,-7,0,5,-8,-3
1.52968E+15,-4,-17,-22,-10,-3,-4,2,12
1.52968E+15,-3,6,6,2,4,4,-5,-3
1.52968E+15,0,9,-16,-5,0,-2,-20,1
1.52968E+15,-1,-25,13,6,-4,-9,6,-10
1.52968E+15,-2,-3,-13,-12,-8,-3,2,-4
1.52968E+15,-3,-8,13,9,4,13,32,-4
1.52968E+15,1,-5,-22,-5,-1,-8,-40,5
1.52968E+15,0,15,-21,-8,-1,-6,5,4
1.52968E+15,1,28,39,0,-8,-7,-36,-14
1.52968E+15,-11,-16,-10,-1,0,-7,21,-3
1.52968E+15,0,-1,-6,2,6,12,7,-5
1.52968E+15,-3,-4,-23,0,2,-4,-11,-1
1.52968E+15,1,12,13,7,0,2,4,3
1.52968E+15,2,-1,-6,-8,-5,-9,-14,2
1.52968E+15,1,-6,10,-1,1,13,-4,-10
1.52968E+15,-4,3,9,4,3,8,9,1
1.52968E+15,-1,-9,-30,-3,-3,-9,11,0
1.52968E+15,5,13,14,3,-3,-1,-17,-2
1.52968E+15,-6,-20,-10,-12,-4,-5,14,-2
1.52968E+15,1,7,12,2,0,-4,25,11
1.52968E+15,-4,-23,-1,4,5,6,-23,2
1.52968E+15,1,2,-15,-7,0,-9,-13,1
1.52968E+15,2,6,-13,-1,-1,12,10,3
1.52968E+15,2,13,16,9,-4,1,-11,-3
1.52968E+15,-8,-4,-5,-12,-7,-4,13,-7
1.52968E+15,-1,-8,9,1,-2,-14,-6,-16
1.52968E+15,-3,-3,2,-3,-2,8,41,17
1.52968E+15,3,-4,-6,2,3,0,-24,-7
1.52968E+15,2,12,-3,0,4,9,2,7
1.52968E+15,1,-12,-15,2,4,1,-6,3
1.52968E+15,1,-1,11,-1,0,3,-5,-10
1.52968E+15,2,29,33,5,-8,-9,-3,-11
1.52968E+15,-3,-20,-35,-13,-3,-2,16,23
1.52968E+15,5,16,11,6,8,11,8,4
1.52968E+15,-6,-24,-6,-7,-7,-8,1,0
1.52968E+15,3,-4,5,0,2,1,-18,-4
1.52968E+15,1,-11,-9,-1,0,0,11,4
1.52968E+15,0,32,5,3,1,-8,1,1
1.52968E+15,2,-9,19,10,1,1,-34,-5
1.52968E+15,-1,-1,-11,-16,-5,-1,11,3
1.52968E+15,-1,5,8,2,1,9,28,-12
1.52968E+15,-1,-12,-60,-18,-5,-2,3,13
1.52968E+15,2,13,5,-3,-2,0,-4,10
1.52968E+15,-3,-6,-13,-4,0,0,-22,-17
1.52968E+15,2,-2,2,1,3,2,7,7
1.52968E+15,1,6,59,17,-1,2,-15,-11
1.52968E+15,-6,-5,-6,-2,3,-12,-7,-12
1.52968E+15,-2,-21,-22,-3,-4,1,-1,17
1.52968E+15,-4,-27,-13,-3,2,0,17,4
1.52968E+15,-2,-9,10,-6,-4,10,0,2
1.52968E+15,-2,3,-8,-3,-2,-4,-2,-7
1.52968E+15,-2,6,-12,0,1,-2,-12,-2
1.52968E+15,2,-2,-7,8,6,5,20,7
1.52968E+15,-1,-2,15,-6,-6,-9,-37,-21
1.52968E+15,3,10,3,5,0,-1,2,7
1.52968E+15,-4,-14,-14,1,3,-1,11,0
1.52968E+15,2,15,3,1,2,-1,-13,-2
1.52968E+15,-2,-1,13,2,-4,-7,13,-3
1.52968E+15,2,5,-10,-1,1,-6,-18,3
1.52968E+15,-3,18,27,2,0,-3,0,-9
1.52968E+15,2,8,30,16,2,-4,5,1
1.52968E+15,-3,-33,-69,-32,-4,0,6,5
1.52968E+15,-3,-3,-4,-4,-5,-9,-7,-2
1.52968E+15,2,-6,-15,-3,1,2,-7,-4
1.52968E+15,3,11,12,-6,-7,-1,2,9
1.52968E+15,1,9,9,16,6,8,7,5
1.52968E+15,-1,-1,-1,1,-2,0,9,0
1.52968E+15,3,6,8,-3,-5,-4,-6,-1
1.52968E+15,-7,-15,-11,-5,-1,6,-20,-15
1.52968E+15,-1,-13,4,5,-5,-8,-29,3
1.52968E+15,1,9,-9,-1,4,0,7,-4
1.52968E+15,-1,-9,8,3,4,1,10,5
1.52968E+15,6,44,38,5,-5,-7,-19,-6
1.52968E+15,6,-10,-14,-1,2,0,17,11
1.52968E+15,-7,-10,12,-5,-6,4,2,-9
1.52968E+15,-1,-3,-26,4,-1,-4,-9,9
1.52968E+15,-2,4,0,-2,1,-1,5,-2
1.52968E+15,-2,-9,-20,2,1,9,20,1
1.52968E+15,6,21,41,9,1,-6,1,2
1.52968E+15,-1,-14,3,3,-1,-3,-9,-1
1.52968E+15,-5,-15,-25,-8,-3,-5,-7,-8
1.52968E+15,-6,12,6,0,-7,-16,-2,-17
1.52968E+15,2,-1,-2,5,4,10,-16,0
1.52968E+15,-3,23,-4,-6,-1,7,19,10
1.52968E+15,-2,-8,2,1,-3,-6,-19,-7
1.52968E+15,0,8,-16,-4,2,-1,-4,-6
1.52968E+15,-2,-4,50,8,-4,-7,2,-2
1.52968E+15,-2,19,-15,-18,-2,-1,-8,-7
1.52968E+15,1,-35,-29,-4,2,4,9,4
1.52968E+15,-3,3,-5,-3,-1,-1,-11,-4
1.52968E+15,-2,-2,1,0,-4,2,11,-2
1.52968E+15,-2,13,15,-3,-5,-5,-3,-1
1.52968E+15,0,7,17,13,0,-4,1,-4
1.52968E+15,-1,-3,-6,-6,3,9,10,6
1.52968E+15,-3,2,-37,-11,-4,-11,-11,3
1.52968E+15,0,-2,34,8,-3,6,0,2
1.52968E+15,0,11,9,3,1,3,7,4
1.52968E+15,1,-1,9,5,4,-6,-9,-2
1.52968E+15,0,-14,-34,-10,1,3,-1,1
1.52968E+15,2,4,24,15,-3,-18,6,2
1.52968E+15,-1,-1,-42,-21,0,23,1,2
1.52968E+15,1,-5,26,3,-1,-2,1,4
1.52968E+15,4,24,14,8,4,2,5,2
1.52968E+15,-1,-38,-24,-8,-1,-1,28,9
1.52968E+15,0,-6,17,6,-1,-10,-9,-1
1.52968E+15,1,32,4,2,0,4,8,-2
1.52968E+15,-2,-6,-9,-5,-1,-10,-17,-1
1.52968E+15,-2,-12,0,-1,-1,3,-4,-8
1.52968E+15,-5,-7,-14,-6,-8,-4,10,-9
1.52968E+15,1,1,0,1,1,5,-6,3
1.52968E+15,-1,-7,-14,7,3,-8,-24,-8
1.52968E+15,-4,21,50,16,-4,-12,0,-2
1.52968E+15,-9,-19,-43,-26,-5,5,10,-3
1.52968E+15,1,-4,8,4,3,4,8,1
1.52968E+15,-1,0,-6,-7,-7,0,-3,-5
1.52968E+15,-3,-18,-26,-8,1,-6,-8,3
1.52968E+15,4,16,10,6,2,-5,-5,-1
1.52968E+15,0,8,4,5,0,-1,2,2
1.52968E+15,-3,-17,-25,-5,0,1,14,8
1.52968E+15,-2,-4,20,-4,-5,1,-10,0
1.52968E+15,4,13,25,6,-1,1,-6,-7
1.52968E+15,2,-30,-30,1,4,4,7,3
1.52968E+15,5,8,-4,-5,0,-3,-4,3
1.52968E+15,4,6,-5,1,1,-1,-13,-9
1.52968E+15,1,0,0,-1,-1,-1,8,-3
1.52968E+15,1,-3,4,3,1,0,7,-2
1.52968E+15,0,4,11,6,0,6,9,-2
1.52968E+15,2,16,-23,-16,-4,-2,-1,-4
1.52968E+15,-4,-3,10,5,0,1,-3,2
1.52968E+15,-1,4,4,-3,-2,-3,-4,1
1.52968E+15,-1,1,1,-2,-2,-10,-7,-3
1.52968E+15,1,1,-10,5,4,-2,-4,1
1.52968E+15,-2,2,9,0,-4,-1,-17,-12
1.52968E+15,-12,-8,33,3,-9,-12,6,-11
1.52968E+15,-2,4,18,3,5,-2,-4,11
1.52968E+15,-7,-32,-87,-31,-2,-4,-16,-15
1.52968E+15,-1,9,26,5,1,-2,2,-6
1.52968E+15,-1,-6,-11,-5,-4,-1,22,-3
1.52968E+15,-6,-5,9,-1,-7,-2,-17,-13
1.52968E+15,2,3,8,8,0,-7,-17,2
1.52968E+15,-6,-24,0,1,-5,-7,-14,-8
1.52968E+15,0,18,9,-1,-1,5,-17,0
1.52968E+15,-1,9,21,12,3,-2,24,0
1.52968E+15,-2,-6,-53,-19,-4,4,-1,0
1.52968E+15,6,24,24,3,-1,-5,0,9
1.52968E+15,-4,-33,-15,-2,-4,-4,-4,3
1.52968E+15,4,8,-9,-5,-3,-4,9,-6
1.52968E+15,0,-1,29,12,0,2,-7,-1
1.52968E+15,5,11,-12,2,3,-3,-13,-5
1.52968E+15,-1,6,9,-1,2,20,49,35
1.52968E+15,-6,-1,19,-1,-4,0,3,-9
1.52968E+15,-2,2,8,5,2,4,-13,1
1.52968E+15,-1,7,-19,-1,-1,-5,-11,3
1.52968E+15,4,18,19,7,2,-4,-16,-5
1.52968E+15,-3,-23,-17,-2,-5,-6,7,1
1.52968E+15,4,19,14,2,-3,-13,21,4
1.52968E+15,-1,-14,-26,-5,1,30,9,7
1.52968E+15,-2,3,-10,-4,-3,-8,-26,-12
1.52968E+15,3,1,-25,-9,3,4,13,8
1.52968E+15,3,7,25,11,0,1,3,2
1.52968E+15,-2,1,-20,-8,1,-6,4,10
1.52968E+15,-1,7,-21,-5,-1,-4,-4,-3
1.52968E+15,1,-2,27,4,-2,3,-6,-7
1.52968E+15,3,-5,28,21,10,5,6,18
1.52968E+15,0,-3,-18,-25,-7,-8,8,0
1.52968E+15,-2,-6,-11,-1,-3,3,8,-8
1.52968E+15,0,-1,-23,-3,6,-2,-2,6
1.52968E+15,2,-10,7,0,-3,-3,-5,-10
1.52968E+15,0,-5,14,4,-3,-3,12,25
1.52968E+15,-3,-17,-34,-6,-2,-9,-20,-2
1.52968E+15,-1,8,44,14,4,23,18,0
1.52968E+15,0,-10,1,-3,1,8,14,-1
1.52968E+15,-3,-8,6,6,6,10,0,-9
1.52968E+15,3,9,19,6,-2,0,14,14
1.52968E+15,-3,2,-54,-25,-9,-8,-15,-8
1.52968E+15,-1,13,11,4,-4,-1,-11,-12
1.52968E+15,-6,-3,-23,-16,-9,-11,1,0
1.52968E+15,-1,-12,13,8,12,12,14,4
1.52968E+15,2,6,-2,2,-1,-6,-9,7
1.52968E+15,-10,-12,-6,-5,-3,5,22,4
1.52968E+15,3,-6,-22,3,2,-8,-21,-2
1.52968E+15,-5,18,57,9,-8,-10,-8,-23
1.52968E+15,-2,-14,-9,-6,-1,-11,-8,-5
1.52968E+15,-3,4,-14,-7,-2,1,3,7
1.52968E+15,0,15,33,13,2,1,10,-5
1.52968E+15,-4,-21,-47,-24,-5,-15,-19,-1
1.52968E+15,-3,-5,9,3,-4,9,-3,-6
1.52968E+15,1,-12,-10,4,5,5,4,0
1.52968E+15,0,6,-8,1,3,-3,-8,1
1.52968E+15,4,8,25,8,9,14,-5,-1
1.52968E+15,2,8,4,0,-3,-10,2,1
1.52968E+15,-1,-15,-9,-8,-6,-14,-20,-7
1.52968E+15,0,7,9,4,5,19,42,8
1.52968E+15,-1,-8,-18,-6,-5,-7,-14,1
1.52968E+15,-1,-11,-8,3,3,-5,-10,2
1.52968E+15,1,9,13,5,4,8,1,-2
1.52968E+15,2,9,3,3,1,-4,-6,-6
1.52968E+15,-1,-1,1,-4,-6,-1,0,1
1.52968E+15,-2,2,24,4,4,11,3,-4
1.52968E+15,-5,-7,-25,-5,-3,-3,6,-4
1.52968E+15,-1,-3,20,5,0,-6,-19,-7
1.52968E+15,4,20,-9,-8,-4,2,10,2
1.52968E+15,-2,0,-12,-10,-6,-11,-13,-4
1.52968E+15,-4,-2,-4,-8,-3,-7,-10,-7
1.52968E+15,-3,-6,-8,0,-1,4,15,-19
1.52968E+15,0,9,17,6,3,2,-18,-9
1.52968E+15,3,12,0,1,-1,-8,1,7
1.52968E+15,-4,-9,-16,-2,-4,0,-7,-12
1.52968E+15,-5,-10,8,0,3,0,-4,1
1.52968E+15,-1,-13,-6,4,1,-9,-17,-2
1.52968E+15,-3,-3,13,-4,-1,8,-12,-11
1.52968E+15,5,4,2,9,2,1,0,10
1.52968E+15,-5,-6,-6,-12,-9,-11,-5,-4
1.52968E+15,-1,-9,-9,-1,-2,-5,1,0
1.52968E+15,4,-3,-14,5,3,0,7,3
1.52968E+15,-3,-6,23,-2,2,2,7,0
1.52968E+15,1,0,-35,0,0,-4,-2,2
1.52968E+15,-4,-29,24,0,-3,7,2,-2
1.52968E+15,-5,5,-4,-3,-5,-13,2,-1
1.52968E+15,1,1,6,-5,-2,8,8,4
1.52968E+15,2,22,10,4,0,3,5,4
1.52968E+15,1,-16,-18,-2,0,1,9,1
1.52968E+15,-3,-8,10,-2,-3,-3,-25,-13
1.52968E+15,0,1,-20,-9,0,-3,-1,-3
1.52968E+15,0,-3,6,-3,-2,-6,-30,2
1.52968E+15,0,12,7,2,4,1,-4,-1
1.52968E+15,-2,8,-1,1,-1,1,10,5
1.52968E+15,-3,-3,3,2,-4,-13,31,4
1.52968E+15,-1,-15,-8,1,0,9,-7,-9
1.52968E+15,5,20,-3,2,4,3,22,15
1.52968E+15,2,-10,11,9,3,2,7,7
1.52968E+15,-6,-7,-8,-8,-5,10,-5,-6
1.52968E+15,2,2,19,5,0,-9,0,4
1.52968E+15,0,3,-14,-8,-6,-3,-2,7
1.52968E+15,7,6,-16,1,4,10,13,7
1.52968E+15,-4,0,23,12,6,4,-3,-4
1.52968E+15,0,0,-17,-6,-2,-9,7,1
1.52968E+15,-5,3,15,5,-1,-3,-8,-7
1.52968E+15,0,-1,1,-5,-6,-2,-15,1
1.52968E+15,2,-3,7,5,-1,2,-13,-3
1.52968E+15,4,-7,-20,3,4,12,9,13
1.52968E+15,1,10,3,3,7,-3,15,5
1.52968E+15,-8,-13,-20,-9,-5,-10,9,2
1.52968E+15,4,4,6,0,-4,1,2,-6
1.52968E+15,-3,-1,-11,-5,-7,-4,-9,7
1.52968E+15,-3,-22,-3,-3,1,-8,-5,-6
1.52968E+15,-1,6,8,-1,4,5,12,-2
1.52968E+15,3,4,-28,-10,-4,-4,-8,2
1.52968E+15,-3,-4,15,4,-3,-3,11,0
1.52968E+15,0,3,-8,-4,-5,-6,-10,-3
1.52968E+15,1,-7,-4,3,2,0,3,-4
1.52968E+15,1,-6,16,2,-1,-7,-2,-2
1.52968E+15,6,22,20,-2,-4,1,9,4
1.52968E+15,-3,1,-20,-7,-7,-16,2,-5
1.52968E+15,-5,-24,-11,3,6,8,1,-1
1.52968E+15,0,15,-10,-4,-4,-14,-12,0
1.52968E+15,-2,-7,25,8,7,30,14,-5
1.52968E+15,0,11,11,6,1,3,10,-3
1.52968E+15,-1,-11,-19,-6,-8,-9,-8,1
1.52968E+15,7,0,-6,6,7,-1,28,8
1.52968E+15,-4,12,24,-1,-4,-6,-16,-6
1.52968E+15,-1,-9,14,-1,1,1,-2,-1
1.52968E+15,2,22,-23,-7,-5,0,8,3
1.52968E+15,-3,-8,4,1,0,0,-2,-7
1.52968E+15,-2,-9,-10,-7,1,2,0,0
1.52968E+15,4,7,-12,-1,0,-9,-3,8
1.52968E+15,-4,-10,5,-2,-5,-8,5,-2
1.52968E+15,-4,-3,-16,1,2,4,-3,0
1.52968E+15,-2,-6,-8,-9,-5,-12,5,2
1.52968E+15,1,-3,17,6,-1,3,-4,-3
1.52968E+15,5,23,21,9,2,-1,-7,-2
1.52968E+15,-6,-35,-19,-10,-7,-7,-12,-2
1.52968E+15,1,16,-5,3,-1,-9,-8,-2
1.52968E+15,-1,-8,-12,-5,0,13,10,-5
1.52968E+15,3,4,23,0,1,12,-2,-5
1.52968E+15,2,19,9,4,2,-9,8,11
1.52968E+15,0,-11,0,4,4,4,10,-2
1.52968E+15,-2,-1,-12,-8,-6,-5,-12,3
1.52968E+15,-2,-14,-4,-1,-2,-4,-5,-1
1.52968E+15,-2,-1,5,-6,-8,3,-4,-4
1.52968E+15,-1,-13,-13,-2,-2,-6,-6,-15
1.52968E+15,-3,7,12,7,1,-8,-6,0
1.52968E+15,0,-8,-16,-11,-1,4,2,1
1.52968E+15,-3,10,2,1,1,4,13,-4
1.52968E+15,-1,7,-2,-4,-2,-7,-26,8
1.52968E+15,-6,-6,-5,-3,0,-5,-16,-34
1.52968E+15,-3,-2,1,1,0,4,31,13
1.52968E+15,-10,-3,-9,0,1,-6,-8,1
1.52968E+15,0,-3,10,4,1,-3,-2,0
1.52968E+15,-2,3,1,-3,-3,-4,-7,2
1.52968E+15,-4,-22,-9,-2,-4,-5,-8,-2
1.52968E+15,2,5,4,1,3,10,-12,-3
1.52968E+15,-4,16,0,-2,-2,-6,-6,-6
1.52968E+15,-5,-23,-4,-7,-7,-9,-2,-1
1.52968E+15,3,14,-6,4,0,-6,-7,-5
1.52968E+15,4,-7,-6,-11,-2,9,0,10
1.52968E+15,5,4,-17,0,5,-8,7,12
1.52968E+15,-2,-4,37,6,-3,7,8,-3
1.52968E+15,-5,10,4,-1,-1,5,22,1
1.52968E+15,5,13,13,4,3,-3,-13,0
1.52968E+15,-8,-40,-23,-8,-4,-6,-4,-4
1.52968E+15,8,29,-4,7,4,1,9,10
1.52968E+15,0,2,-8,-12,-6,-11,-3,1
1.52968E+15,-6,15,30,7,-6,-10,-3,-9
1.52968E+15,-1,-22,-16,-11,4,16,12,-3
1.52968E+15,4,13,-10,-2,1,-9,-5,6
1.52968E+15,0,6,10,2,-6,-8,2,2
1.52968E+15,3,-6,-26,-3,2,11,1,5
1.52968E+15,-1,16,25,7,-1,-6,-12,-12
1.52968E+15,-7,-34,-21,-3,3,1,5,-4
1.52968E+15,3,6,4,-1,2,3,6,0
1.52968E+15,-2,-11,1,-2,-6,-14,-6,-1
1.52968E+15,4,16,7,5,0,-4,20,10
1.52968E+15,2,-4,-11,-2,7,12,9,15
1.52968E+15,4,15,17,5,3,-3,-10,-3
1.52968E+15,-2,-18,-15,-1,-2,-1,7,-10
1.52968E+15,-1,1,4,2,-1,-4,-22,-9
1.52968E+15,-2,5,-7,-5,-3,-8,7,3
1.52968E+15,-3,-18,-14,2,1,-5,-15,-9
1.52968E+15,3,4,34,6,-1,3,2,5
1.52968E+15,3,3,15,6,3,3,11,1
1.52968E+15,0,-8,-29,-12,-3,-4,4,3
1.52968E+15,-2,-13,1,5,3,4,-18,-4
1.52968E+15,0,17,-1,9,3,-5,-6,0
1.52968E+15,-9,-14,-13,-13,-8,-4,4,-8
1.52968E+15,2,10,15,0,-5,-11,-9,1
1.52968E+15,-1,-8,-5,-6,0,-9,-11,-1
1.52968E+15,-2,0,5,6,8,14,5,-6
1.52968E+15,-3,4,4,6,-4,-1,-7,-6
1.52968E+15,-4,7,14,3,-6,-7,2,-6
1.52968E+15,3,12,7,0,-5,-12,-26,7
1.52968E+15,3,11,-8,-3,2,5,1,-5
1.52968E+15,2,18,7,7,2,13,3,4
1.52968E+15,-1,-12,-15,-4,-3,-12,-5,-7
1.52968E+15,-2,1,-2,-5,-6,11,18,2
1.52968E+15,1,-5,-6,-2,1,4,5,-1
1.52968E+15,3,-14,-1,-1,-2,-6,-12,-2
1.52968E+15,-1,8,-10,-4,0,5,11,5
1.52968E+15,1,8,9,4,1,0,2,0
1.52968E+15,3,-9,-6,-4,-1,-1,-1,-2
1.52968E+15,6,5,-20,1,1,1,1,7
1.52968E+15,-5,-18,24,2,-3,-3,-17,-8
1.52968E+15,-5,2,-5,0,-2,-3,12,10
1.52968E+15,-2,-10,-2,-4,-6,-3,-12,-8
1.52968E+15,2,5,-2,-2,-3,-5,11,7
1.52968E+15,3,7,1,13,12,-1,-4,5
1.52968E+15,1,-4,-15,-6,0,7,-2,-2
1.52968E+15,-6,-6,3,-4,-10,-7,15,-1
1.52968E+15,1,5,2,-3,-4,2,0,1
1.52968E+15,2,0,5,16,16,5,-6,0
1.52968E+15,-3,-5,-4,3,-2,-17,-30,-19
1.52968E+15,-2,-1,-13,-13,-13,-12,24,16
1.52968E+15,-2,-3,24,-5,-1,33,1,-5
1.52968E+15,5,15,-6,-3,6,9,17,3
1.52968E+15,6,-9,12,8,6,-3,1,-4
1.52968E+15,-3,17,-5,5,-4,-6,-15,3
1.52968E+15,-8,-12,4,-6,-6,-18,-10,-6
1.52968E+15,3,-11,-2,2,-1,-10,-27,-14
1.52968E+15,-3,32,-8,-5,1,15,16,3
1.52968E+15,-5,-45,-13,-15,-5,-6,-11,0
1.52968E+15,11,-8,-9,1,-1,-6,18,-12
1.52968E+15,-34,-10,-2,-9,-13,-3,-38,-10
1.52968E+15,-3,-19,-8,2,-6,-4,7,5
1.52968E+15,-2,0,-5,3,6,3,-1,-2
1.52968E+15,-1,1,-7,2,3,-6,-7,10
1.52968E+15,6,-5,1,-5,-4,-8,6,-2
1.52968E+15,-1,-11,-6,3,1,4,-2,3
1.52968E+15,2,30,20,1,1,6,3,1
1.52968E+15,1,1,9,9,7,-3,0,1
1.52968E+15,5,-4,-30,-9,-2,-2,14,21
1.52968E+15,-6,8,17,-4,-6,4,-6,-5
1.52968E+15,4,3,6,6,1,1,-1,-6
1.52968E+15,-7,-9,-17,-11,-9,-13,-6,-3
1.52968E+15,0,0,27,7,-2,5,2,-1
1.52968E+15,2,9,-23,-5,3,0,1,2
1.52968E+15,4,-9,-25,-3,3,2,13,20
1.52968E+15,-4,2,27,11,0,-8,-9,-6
1.52968E+15,2,2,-25,-6,-4,15,2,3
1.52968E+15,-2,-26,-4,-9,-1,-3,20,7
1.52968E+15,3,36,14,3,-3,2,1,-6
1.52968E+15,-9,-24,-17,-3,5,-7,-34,-4
1.52968E+15,0,0,-4,1,4,-5,-4,-11
1.52968E+15,4,7,21,7,-1,7,11,21
1.52968E+15,-4,3,1,-6,-5,6,14,-15
1.52968E+15,-6,-10,-9,-6,-8,-13,0,10
1.52968E+15,2,-3,4,3,4,-5,3,-3
1.52968E+15,-1,0,-11,-4,2,2,-5,-2
1.52968E+15,-4,-7,15,2,0,1,-7,-6
1.52968E+15,3,8,-2,-4,-6,1,1,2
1.52968E+15,2,15,5,-1,-8,-17,5,10
1.52968E+15,-6,-19,0,-1,1,8,-10,-9
1.52968E+15,6,2,4,5,10,14,10,7
1.52968E+15,0,1,-14,-1,1,3,13,-2
1.52968E+15,-6,11,26,-1,-9,-11,0,-8
1.52968E+15,0,7,-14,0,-6,-17,-15,-8
1.52968E+15,-1,-15,9,1,5,11,-12,-1
1.52968E+15,5,4,-17,-9,5,13,11,10
1.52968E+15,1,-13,-2,-6,-10,-10,-6,-7
1.52968E+15,-8,-12,-1,0,0,-1,9,8
1.52968E+15,1,-14,-16,3,3,-8,-8,1
1.52968E+15,3,16,8,1,-2,-2,-1,-5
1.52968E+15,1,-1,-1,-4,-4,0,3,9
1.52968E+15,3,3,9,1,-4,-8,-6,-9
1.52968E+15,-3,-1,-7,-4,-1,4,-4,-8
1.52968E+15,-7,-5,0,0,5,-5,4,-12
1.52968E+15,4,-7,-3,3,7,12,4,3
1.52968E+15,0,8,2,-1,-2,11,0,-2
1.52968E+15,-5,3,8,-1,-6,-4,-11,1
1.52968E+15,1,4,4,2,0,-4,0,-3
1.52968E+15,-2,-22,-44,-16,-3,5,5,-1
1.52968E+15,-4,5,43,10,0,-6,-17,-6
1.52968E+15,0,1,3,5,0,-5,-3,0
1.52968E+15,0,4,0,-6,-1,1,-2,-1
1.52968E+15,-3,7,-7,-5,0,-5,-5,0
1.52968E+15,-9,-25,-34,-13,-4,-6,-4,5
1.52968E+15,-1,-5,3,6,0,-1,-5,1
1.52968E+15,-2,-5,5,-2,-1,1,-5,-1
1.52968E+15,4,29,10,4,-6,-11,-10,2
1.52968E+15,4,4,-7,-1,8,8,13,-7
1.52968E+15,-6,-10,-10,-4,-1,-4,1,2
1.52968E+15,2,8,6,5,3,5,7,1
1.52968E+15,2,7,28,15,7,9,-4,-1
1.52968E+15,-1,-15,-37,-21,-9,-4,-6,-5
1.52968E+15,2,34,6,4,-1,8,16,8
1.52968E+15,-1,-4,10,-3,-4,-9,-9,-6
1.52968E+15,-1,2,15,7,4,8,14,9
1.52968E+15,3,-8,14,6,7,1,-5,-3
1.52968E+15,2,3,-23,-10,-1,-4,-10,-5
1.52968E+15,-2,-11,-19,-3,-4,3,2,5
1.52968E+15,-1,-3,20,1,-3,-11,-1,-2
1.52968E+15,0,6,21,5,-5,-3,4,-5
1.52968E+15,3,9,-14,-3,-1,-2,-14,-2
1.52968E+15,-5,-16,7,5,-7,-4,1,8
1.52968E+15,-5,13,-19,-6,1,-5,0,-9
1.52968E+15,0,4,-11,2,9,5,6,0
1.52968E+15,-1,6,23,3,-2,-4,1,-1
1.52968E+15,1,-3,-15,-3,-5,-7,-3,-3
1.52968E+15,0,-1,-7,-7,-10,-18,-9,2
1.52968E+15,2,16,14,7,2,21,15,5
1.52968E+15,1,-7,3,0,4,3,-8,-2
1.52968E+15,-6,-3,10,-1,1,-8,-9,-17
1.52968E+15,-6,-22,-11,-6,-4,3,23,14
1.52968E+15,3,11,5,-3,-4,-7,15,6
1.52968E+15,1,-11,-9,-1,1,-2,-10,0
1.52968E+15,3,7,-11,0,5,10,11,-7
1.52968E+15,4,-4,25,10,6,-1,-10,-8
1.52968E+15,-2,-7,-9,-1,-1,4,8,0
1.52968E+15,-3,-7,5,0,-9,-3,0,-1
1.52968E+15,3,4,-22,-22,-11,-10,-12,4
1.52968E+15,-3,-14,-2,0,4,4,-11,-4
1.52968E+15,1,5,-1,5,2,-3,14,11
1.52968E+15,-4,-11,10,-4,-8,-1,6,-2
1.52968E+15,0,6,9,4,4,0,-3,3
1.52968E+15,4,0,-19,3,4,3,-1,-1
1.52968E+15,-1,-3,12,2,2,0,-10,-7
1.52968E+15,1,4,-6,0,1,-7,-8,-3
1.52968E+15,1,-1,-3,-2,-10,-20,-12,4
1.52968E+15,0,6,4,-2,-3,26,21,0
1.52968E+15,-2,-1,-11,-7,-9,-4,-5,-3
1.52968E+15,-4,-1,-11,-1,8,9,9,2
1.52968E+15,0,9,8,13,16,9,5,5
1.52968E+15,-7,-12,-7,-6,-11,-27,-12,-16
1.52968E+15,-8,-10,-8,-7,-7,5,12,-9
1.52968E+15,0,-3,-4,0,0,0,-11,5
1.52968E+15,-1,6,-7,-2,2,12,26,-1
1.52968E+15,4,2,-8,-6,-4,-7,-12,3
1.52968E+15,4,13,24,10,-3,-3,-8,3
1.52968E+15,-8,-14,-23,-21,-14,-9,-10,-18
1.52968E+15,-6,-24,-16,6,5,-1,-1,4
1.52968E+15,-1,13,-2,-7,-2,-1,2,0
1.52968E+15,-1,14,16,1,0,-6,-6,-9
1.52968E+15,7,13,10,-1,1,3,-2,1
1.52968E+15,0,-6,6,1,-8,-10,-9,1
1.52968E+15,-6,-22,-12,2,4,8,2,-5
1.52968E+15,0,-8,-22,-1,7,-13,-10,3
1.52968E+15,4,8,63,20,12,11,9,3
1.52968E+15,-3,3,-35,-9,-2,6,6,5
1.52968E+15,3,-4,-7,-4,-1,-8,4,10
1.52968E+15,-4,6,0,-5,-6,-1,-11,-4
1.52968E+15,-2,8,-17,-6,-6,-9,3,3
1.52968E+15,3,-11,7,2,-6,-4,-9,-4
1.52968E+15,2,8,23,10,9,1,11,8
1.52968E+15,2,-9,-8,-2,7,8,10,6
1.52968E+15,0,-20,3,4,-4,-3,-14,14
1.52968E+15,2,7,8,-7,-7,0,0,-3
1.52968E+15,-3,0,-20,-8,-11,-10,-30,-15
1.52968E+15,-5,-7,-11,-3,-4,-13,15,-1
1.52968E+15,4,13,11,9,17,21,22,11
1.52968E+15,-2,-20,0,-2,-1,-3,-5,-3
1.52968E+15,-3,-5,-1,4,4,3,-11,-2
1.52968E+15,3,6,10,6,-2,-5,-11,-4
1.52968E+15,-5,-12,-31,-21,-13,-8,3,-3
1.52968E+15,-4,16,22,6,2,0,2,-2
1.52968E+15,1,7,0,1,2,-4,5,5
1.52968E+15,-3,-10,-11,-7,-6,7,-8,-5
1.52968E+15,-1,0,-2,-2,-4,-6,-2,-7
1.52968E+15,1,7,1,-3,0,9,3,-7
1.52968E+15,3,2,9,2,0,0,8,14
1.52968E+15,2,-3,12,7,3,-2,8,8
1.52968E+15,3,1,-21,-6,-1,-4,12,8
1.52968E+15,0,-15,2,1,-2,6,3,2
1.52968E+15,-1,9,8,4,-3,-2,8,-8
1.52968E+15,-5,-14,-20,-11,-3,-6,-5,10
1.52968E+15,1,3,5,0,-3,-4,-13,-6
1.52968E+15,3,1,10,8,10,-5,0,4
1.52968E+15,-5,2,-7,-3,5,17,6,3
1.52968E+15,6,9,8,6,3,8,-3,-5
1.52968E+15,-6,-1,2,-2,-5,6,17,-9
1.52968E+15,0,-11,-25,-9,-1,-10,-28,-2
1.52968E+15,-4,5,6,-1,-5,-8,-3,-12
1.52968E+15,6,19,15,4,2,-4,-4,0
1.52968E+15,-4,-26,-1,3,-3,-1,-11,-4
1.52968E+15,-3,-5,-4,-1,-2,-3,4,-2
1.52968E+15,-2,-22,-10,-10,-5,-2,6,1
1.52968E+15,-2,17,3,1,0,-3,-9,-1
1.52968E+15,-2,5,-3,3,1,0,-7,-4
1.52968E+15,0,17,20,1,-3,-2,12,0
1.52968E+15,1,-2,-12,0,0,-1,-15,6
1.52968E+15,-3,1,-11,-4,-2,1,1,-1
1.52968E+15,-5,-8,-6,-5,-1,-14,-7,-7
1.52968E+15,-5,-12,-3,-1,-3,-12,12,-2
1.52968E+15,8,9,0,6,11,23,0,1
1.52968E+15,-2,-10,14,1,-2,10,11,10
1.52968E+15,-4,-23,-18,-9,-4,0,14,-4
1.52968E+15,2,23,17,7,1,-6,-5,0
1.52968E+15,2,2,-14,-9,-7,-8,10,4
1.52968E+15,-1,-16,-13,2,5,-4,-17,-9
1.52968E+15,2,12,11,6,-1,-8,4,-2
1.52968E+15,-2,-14,6,4,4,18,-12,2
1.52968E+15,-7,1,1,-13,-8,-17,-16,-17
1.52968E+15,-1,-6,-2,-1,-6,1,4,3
1.52968E+15,0,11,-4,-1,0,-6,-3,2
1.52968E+15,-1,1,-6,-3,1,-5,-9,-10
1.52968E+15,1,1,-2,6,3,5,6,2
1.52968E+15,2,-3,-1,0,1,-12,-10,-3
1.52968E+15,-4,-4,8,-2,-4,1,2,-4
1.52968E+15,-1,-5,-8,-2,-3,0,4,3
1.52968E+15,2,20,5,3,-1,-9,-9,-2
1.52968E+15,-9,5,-5,-4,-1,-3,-13,-23
1.52968E+15,6,-7,-10,3,-1,10,-16,-4
1.52968E+15,-2,10,10,-3,-4,-8,3,-3
1.52968E+15,-7,-9,15,10,8,13,-16,-8
1.52968E+15,4,5,-12,-12,-5,-3,1,-2
1.52968E+15,-5,-1,-20,-6,-3,-5,-1,10
1.52968E+15,1,1,3,-4,-3,-9,-12,-3
1.52968E+15,3,-10,5,-1,-3,5,15,7
1.52968E+15,-3,-1,22,7,4,-1,3,2
1.52968E+15,0,-4,-34,-8,5,12,-1,-3
1.52968E+15,-3,-9,-5,-2,-2,-4,4,4
1.52968E+15,3,-3,-7,-2,-5,-9,1,1
1.52968E+15,-1,3,43,6,-7,-3,-1,0
1.52968E+15,-3,-7,5,10,5,6,2,-6
1.52968E+15,-2,9,-7,-5,3,-6,-26,2
1.52968E+15,1,6,0,-1,0,-6,25,5
1.52968E+15,2,-5,-11,-4,-5,7,-5,2
1.52968E+15,-2,-3,-6,-7,-4,0,10,3
1.52968E+15,5,1,-9,5,7,4,-1,-2
1.52968E+15,-1,5,10,6,3,-4,-1,11
1.52968E+15,-1,3,8,-9,-3,0,6,-12
1.52968E+15,3,8,13,3,-4,-15,3,7
1.52968E+15,3,-4,-11,-2,-4,15,8,2
1.52968E+15,0,2,4,1,-1,-3,-8,-10
1.52968E+15,-2,-3,-23,1,5,1,12,9
1.52968E+15,-1,-6,-3,-4,-4,-3,-12,0
1.52968E+15,-4,12,31,4,-8,-9,5,-5
1.52968E+15,-3,-9,-10,-5,-5,-9,6,0
1.52968E+15,1,-7,-6,1,9,11,1,4
1.52968E+15,5,14,-1,2,6,10,-1,2
1.52968E+15,5,21,-3,3,4,2,-2,2
1.52968E+15,-12,-39,-14,-6,-8,-2,5,3
1.52968E+15,2,5,4,-6,-2,-10,-4,3
1.52968E+15,-3,1,4,1,1,-3,-4,-7
1.52968E+15,-1,-1,-17,-5,-5,4,7,3
1.52968E+15,-2,9,6,-4,-4,-7,-8,-6
1.52968E+15,0,5,11,8,-2,-9,-1,-2
1.52968E+15,-1,-8,-18,-1,-2,0,-9,1
1.52968E+15,-4,-2,14,-1,3,-8,-4,-11
1.52968E+15,2,1,-5,1,7,2,17,2
1.52968E+15,-4,-11,-20,-13,-9,-7,-6,-3
1.52968E+15,-1,-6,16,5,0,7,7,-5
1.52968E+15,4,16,-7,-1,-2,-5,-7,-3
1.52968E+15,-7,-29,-9,-6,-7,-7,9,5
1.52968E+15,1,8,17,13,12,8,18,4
1.52968E+15,0,-7,-8,-4,-6,-6,1,-8
1.52968E+15,-2,-18,-3,-4,-1,-1,0,3
1.52968E+15,2,12,5,1,-4,-14,-8,0
1.52968E+15,1,-8,-9,1,-2,-3,-18,-3
1.52968E+15,-5,3,30,1,-4,6,-7,1
1.52968E+15,-4,-7,-32,-8,-9,-8,6,2
1.52968E+15,3,-11,9,5,8,5,-8,-7
1.52968E+15,0,9,-14,2,2,11,-5,2
1.52968E+15,3,11,7,-1,1,-11,-8,1
1.52968E+15,4,-4,19,5,-2,5,0,-1
1.52968E+15,2,-9,-11,-1,-2,2,19,11
1.52968E+15,-3,3,3,-3,-2,-3,-5,-7
1.52968E+15,2,7,5,0,8,6,8,2
1.52968E+15,0,-1,5,0,0,-4,-2,-3
1.52968E+15,8,16,-8,-4,-2,1,-13,-3
1.52968E+15,-5,-8,0,-2,-5,-12,10,11
1.52968E+15,0,-2,4,7,6,7,0,1
1.52968E+15,1,7,-16,0,5,0,9,4
1.52968E+15,-4,-6,32,6,-1,1,-15,-9
1.52968E+15,0,-9,-10,-8,-9,-5,-3,-3
1.52968E+15,4,3,-1,4,2,-1,-4,-1
1.52968E+15,0,11,12,5,3,-6,2,7
1.52968E+15,-6,-13,-34,-8,3,-7,-2,-7
1.52968E+15,3,5,30,1,3,9,3,1
1.52968E+15,-4,-2,-7,-2,-6,-15,2,0
1.52968E+15,0,-9,1,0,-1,14,0,3
1.52968E+15,0,8,-1,-5,-9,-5,-5,-3
1.52968E+15,-3,-27,-22,1,4,0,19,4
1.52968E+15,3,8,4,3,5,-2,-4,5
1.52968E+15,5,4,15,8,2,3,-1,5
1.52968E+15,-1,7,1,-3,-3,2,-5,6
1.52968E+15,-3,-11,-18,-6,-5,-2,-7,-4
1.52968E+15,2,5,0,-1,2,7,8,4
1.52968E+15,-3,-12,-7,0,-1,-7,-4,-5
1.52968E+15,-1,9,9,-3,-2,0,5,-1
1.52968E+15,-1,-2,-1,1,7,5,-9,4
1.52968E+15,-1,-7,-5,-6,-3,-7,-4,-4
1.52968E+15,-2,-19,5,0,-5,-6,-1,-3
1.52968E+15,4,11,-43,-13,-3,-1,6,4
1.52968E+15,0,10,26,-3,-5,-7,3,8
1.52968E+15,-5,-17,-4,-5,-7,-7,4,-6
1.52968E+15,-4,0,-11,-4,0,9,10,-2
1.52968E+15,3,-3,16,10,4,5,-8,2
1.52968E+15,4,13,3,4,0,5,0,3
1.52968E+15,0,6,-18,-8,-8,-6,-2,2
1.52968E+15,-4,-7,9,-1,0,-4,3,-2
1.52968E+15,-2,-12,4,3,9,12,-3,-8
1.52968E+15,4,9,-25,1,5,3,-3,2
1.52968E+15,0,10,40,9,0,5,7,-3
1.52968E+15,-2,-2,0,-5,-12,-20,-10,-7
1.52968E+15,-9,0,8,-3,-3,0,-3,6
1.52968E+15,1,10,-9,3,1,15,-9,-9
1.52968E+15,-1,-12,-21,-8,-2,-9,-3,5
1.52968E+15,-1,-3,-13,-1,4,-7,-10,-3
1.52968E+15,1,10,16,5,-2,-12,1,0
1.52968E+15,2,2,-10,-7,-5,12,10,-2
1.52968E+15,-3,-1,6,1,2,-4,-8,-3
1.52968E+15,1,14,-4,1,3,-3,3,5
1.52968E+15,0,-6,6,-1,-1,-9,-1,-3
1.52968E+15,-2,-9,11,1,-7,11,-8,-4
1.52968E+15,2,6,-9,4,2,-7,1,4
1.52968E+15,-5,-16,-16,-14,0,-6,0,1
1.52968E+15,1,6,-4,0,-1,-2,-4,-5
1.52968E+15,-1,-10,1,6,3,12,1,-3
1.52968E+15,-3,-13,17,-1,-3,-5,4,-10
1.52968E+15,1,3,6,9,4,-6,-7,-2
1.52968E+15,2,4,-21,-6,-5,1,15,2
1.52968E+15,-3,-3,8,-6,-7,16,-12,-1
1.52968E+15,-1,2,-5,6,10,5,2,1
1.52968E+15,-1,-4,7,1,-2,-9,26,12
1.52968E+15,3,-6,-15,-9,-1,-4,-7,-1
1.52968E+15,-4,-18,-12,-6,-3,-6,-6,-1
1.52968E+15,1,27,-3,-6,-5,-6,-5,-4
1.52968E+15,-3,-15,1,-9,2,5,1,-2
1.52968E+15,-1,14,-10,8,4,1,-6,-2
1.52968E+15,2,10,14,-2,-6,-1,6,-4
1.52968E+15,-3,0,12,-2,1,-2,-4,12
1.52968E+15,-3,-6,-24,-8,-5,-2,-11,-5
1.52968E+15,-3,-6,7,1,-1,-3,-1,1
1.52968E+15,-4,-3,-6,3,5,11,5,-11
1.52968E+15,0,-12,-37,-9,-2,1,4,4
1.52968E+15,-2,23,44,8,-6,-10,4,-19
1.52968E+15,-3,-6,-1,3,-5,-7,-9,3
1.52968E+15,-3,-3,-10,-5,1,-20,1,1
1.52968E+15,3,-5,3,4,0,26,22,-2
1.52968E+15,0,1,-13,-6,2,-2,-31,4
1.52968E+15,1,15,13,10,12,31,29,-3
1.52968E+15,-6,-27,13,-2,-4,-21,3,-2
1.52968E+15,0,2,-15,-2,-3,2,-12,2
1.52968E+15,0,-5,-6,6,2,6,-1,-1
1.52968E+15,-4,1,13,-8,-11,-12,6,-1
1.52968E+15,3,-2,-29,-9,0,-16,2,4
1.52968E+15,-3,-7,9,-3,2,14,4,-2
1.52968E+15,0,-1,-13,-1,1,18,8,0
1.52968E+15,-3,-16,-7,-7,-5,-6,-15,-15
1.52968E+15,3,25,7,3,2,-11,-3,2
1.52968E+15,-7,-24,3,3,-2,-10,-14,-10
1.52968E+15,-4,-7,-14,-14,-10,-11,2,-4
1.52968E+15,-1,7,7,1,-1,1,-20,-6
1.52968E+15,-5,2,-8,1,4,5,14,6
1.52968E+15,4,26,1,5,2,5,-3,-4
1.52968E+15,1,-23,-1,8,5,3,0,7
1.52968E+15,2,16,18,-15,-17,-29,-9,2
1.52968E+15,-3,-6,2,1,-3,-4,-10,-7
1.52968E+15,-1,-3,-5,-3,-4,-17,-19,-2
1.52968E+15,1,1,-14,3,9,12,10,2
1.52968E+15,4,-2,-6,6,7,22,4,-1
1.52968E+15,2,14,9,6,-3,0,15,16
1.52968E+15,-2,-15,-10,-9,-4,-6,-1,3
1.52968E+15,1,5,5,0,-4,-14,-7,-1
1.52968E+15,-3,-13,0,-1,3,1,10,-2
1.52968E+15,-2,2,7,2,0,-6,-20,-5
1.52968E+15,1,13,6,-5,-9,-3,-10,-4
1.52968E+15,-3,-10,-13,-6,-3,1,2,6
1.52968E+15,1,-9,17,8,10,5,0,5
1.52968E+15,-2,-4,-6,-2,1,-10,2,-13
1.52968E+15,1,-7,3,3,0,7,2,0
1.52968E+15,5,21,16,4,-4,-1,-10,-4
1.52968E+15,-2,-5,-8,3,-1,2,2,7
1.52968E+15,0,-5,-13,-8,-6,-7,0,2
1.52968E+15,3,0,-9,1,4,7,4,0
1.52968E+15,1,13,40,4,-1,1,6,-2
1.52968E+15,-2,-10,-9,0,-1,-6,-7,-3
1.52968E+15,2,3,10,3,-5,-8,-3,-2
1.52968E+15,0,1,-14,-4,-3,1,-2,-7
1.52968E+15,-7,-4,3,-4,-6,1,-3,-1
1.52968E+15,-3,3,8,3,-1,-11,0,-6
1.52968E+15,0,-11,-11,-4,1,10,1,-1
1.52968E+15,-1,11,8,0,-2,-5,11,-1
1.52968E+15,-1,-2,0,4,1,0,0,-3
1.52968E+15,1,-3,-14,-2,1,3,-9,3
1.52968E+15,3,3,-12,-10,0,-3,-7,-2
1.52968E+15,-2,-7,7,0,-10,2,26,2
1.52968E+15,1,5,13,-3,0,-4,-16,5
1.52968E+15,-2,-6,0,5,9,12,24,-1
1.52968E+15,-3,-2,0,0,-3,5,-5,2
1.52968E+15,-1,5,0,3,1,-5,-14,4
1.52968E+15,-4,-6,-23,-7,-8,-3,5,-12
1.52968E+15,2,0,-4,-5,-2,1,-7,-5
1.52968E+15,2,23,27,7,4,-7,-2,-3
1.52968E+15,-2,-18,-22,-4,3,7,3,5
1.52968E+15,-3,-2,30,7,1,-2,-2,3
1.52968E+15,2,2,-26,-5,-5,-11,-6,2
1.52968E+15,-1,8,3,-5,-2,13,-1,-4
1.52968E+15,3,4,25,5,1,-9,-24,-4
1.52968E+15,-1,-12,-25,-4,2,-4,4,4
1.52968E+15,-5,-10,4,6,3,10,-9,-10
1.52968E+15,4,22,0,7,3,-1,0,7
1.52968E+15,-5,-9,-2,-10,-2,-3,-13,-6
1.52968E+15,0,-2,-27,-7,-3,1,12,8
1.52968E+15,-4,0,14,-5,-9,-11,-31,-11
1.52968E+15,-1,-18,-26,-4,-1,-11,1,10
1.52968E+15,0,4,42,15,6,0,-2,1
1.52968E+15,5,0,-4,1,4,15,14,1
1.52968E+15,2,4,-15,-3,-5,-5,0,3
1.52968E+15,-1,-10,0,-3,3,7,2,0
1.52968E+15,-3,6,-7,-6,-1,-5,8,-5
1.52968E+15,-1,0,1,-1,-4,-5,16,5
1.52968E+15,0,5,-1,2,-3,4,6,16
1.52968E+15,-1,-2,0,0,-2,-10,-4,-2
1.52968E+15,6,10,-36,-6,6,14,5,4
1.52968E+15,-8,-3,38,7,-4,-1,-9,-4
1.52968E+15,1,3,7,-3,3,-1,16,0
1.52968E+15,0,-4,25,4,-3,-4,5,3
1.52968E+15,-2,1,-9,2,2,3,-1,2
1.52968E+15,5,1,-21,-7,-3,-7,-10,-2
1.52968E+15,1,5,-3,-2,-6,-14,20,6
1.52968E+15,-6,-14,-1,-1,-3,8,-10,-13
1.52968E+15,2,-5,9,3,-1,-6,-6,-5
1.52968E+15,3,38,0,0,0,-2,-3,-8
1.52968E+15,-3,-4,20,2,2,-2,2,-2
1.52968E+15,-1,-16,-11,1,5,10,15,-3
1.52968E+15,0,-13,-5,-4,-2,-2,17,-7
1.52968E+15,-5,0,5,-5,-11,-12,-20,-6
1.52968E+15,1,-4,10,8,8,10,-3,1
1.52968E+15,0,8,-23,-16,-5,-7,4,5
1.52968E+15,-3,-3,-4,4,0,7,-2,0
1.52968E+15,-2,-14,0,0,0,-4,-3,0
1.52968E+15,0,3,-20,-9,-6,-8,-9,-2
1.52968E+15,-6,-16,4,4,-5,-2,-2,-1
1.52968E+15,-2,3,2,-1,4,0,-3,-1
1.52968E+15,4,8,-2,0,-2,0,4,7
1.52968E+15,-2,-4,22,2,-5,-2,-7,1
1.52968E+15,-1,5,-21,-1,4,-10,-1,-8
1.52968E+15,-2,9,14,0,3,8,4,10
1.52968E+15,-7,-20,-8,1,2,-3,-3,-9
1.52968E+15,0,8,-21,-11,-5,-3,4,0
1.52968E+15,-2,-15,-2,-3,-5,-2,-11,-2
1.52968E+15,-2,11,16,2,-7,-5,-2,-3
1.52968E+15,2,5,-8,-4,-1,3,-3,5
1.52968E+15,3,7,1,2,1,0,7,0
1.52968E+15,-1,10,0,1,1,10,-2,-1
1.52968E+15,0,-1,-5,-3,-4,-7,-6,2
1.52968E+15,2,-2,-7,3,5,4,-1,-4
1.52968E+15,0,0,3,3,0,1,-4,-2
1.52968E+15,1,4,10,4,-1,-4,0,2
1.52968E+15,-1,1,-14,-5,-3,-4,-5,-5
1.52968E+15,0,-13,-7,-3,4,7,0,15
1.52968E+15,-5,9,-1,-4,-2,-5,-8,-4
1.52968E+15,-2,-4,3,0,-1,-12,-22,-7
1.52968E+15,-1,5,-5,0,1,19,22,-5
1.52968E+15,0,-4,-8,-1,3,-3,1,2
1.52968E+15,2,-2,-14,-10,-3,-2,-8,-1
1.52968E+15,-2,8,11,3,2,8,2,3
1.52968E+15,0,-6,-22,-4,-3,-15,-4,0
1.52968E+15,0,5,17,2,1,-1,-9,-3
1.52968E+15,3,4,3,-2,-2,2,31,8
1.52968E+15,-6,1,19,-1,-6,-6,-33,-16
1.52968E+15,1,-9,-8,1,2,-3,-3,-1
1.52968E+15,-3,2,7,-1,-1,9,6,0
1.52968E+15,3,4,-12,-1,-1,-8,-8,4
1.52968E+15,-2,-16,-2,-1,-7,-4,17,-8
1.52968E+15,0,2,6,3,-1,5,3,1
1.52968E+15,-10,-4,-24,-4,-3,-5,-14,-14
1.52968E+15,-4,-1,4,4,6,6,-5,-6
1.52968E+15,2,-3,-11,-3,-1,4,-2,11
1.52968E+15,1,-2,16,3,0,-9,-2,-4
1.52968E+15,-4,-7,1,-2,-1,-8,-9,-5
1.52968E+15,0,3,-2,4,0,3,3,2
1.52968E+15,0,-7,-15,-4,1,4,17,5
1.52968E+15,0,20,16,1,-1,-6,-17,5
1.52968E+15,3,6,-10,1,-3,-3,21,3
1.52968E+15,-4,-5,-2,2,4,-2,-24,-7
1.52968E+15,-2,4,-2,-3,-3,-6,10,-12
1.52968E+15,-7,-15,-20,-7,1,6,1,4
1.52968E+15,-1,-1,36,6,-2,-3,-15,-11
1.52968E+15,0,-11,-18,-4,3,-3,-1,4
1.52968E+15,2,2,0,3,2,0,-3,0
1.52968E+15,-1,-4,0,-5,-3,-1,7,4
1.52968E+15,4,19,-13,-6,-1,2,4,0
1.52968E+15,-1,-13,14,6,1,-9,-6,-1
1.52968E+15,-5,-8,0,-5,-5,9,8,-1
1.52968E+15,3,4,2,-2,-3,-8,10,-4
1.52968E+15,1,-5,-37,-6,2,7,-11,9
1.52968E+15,0,-1,38,10,1,-1,4,2
1.52968E+15,0,17,15,0,1,-9,-7,0
1.52968E+15,-1,-15,11,3,-2,-11,-11,-3
1.52968E+15,-2,-13,0,-3,-2,2,-3,-10
1.52968E+15,-3,5,-16,-4,0,4,-1,0
1.52968E+15,-4,-33,-15,1,-1,5,4,0
1.52968E+15,1,5,5,2,2,-3,2,1
1.52968E+15,-1,7,5,-2,-5,-9,5,-2
1.52968E+15,-2,-8,-13,-9,0,-2,-4,-3
1.52968E+15,4,16,-4,4,3,-2,4,4
1.52968E+15,2,-4,0,-1,-3,-5,2,2
1.52968E+15,-2,-8,3,-4,-4,-9,8,3
1.52968E+15,-1,-4,7,3,1,9,10,-2
1.52968E+15,1,18,-7,0,3,-5,-13,-2
1.52968E+15,-3,-11,-6,0,-1,4,2,1
1.52968E+15,1,0,7,-1,-2,1,2,2
1.52968E+15,1,-4,-8,-2,-2,-8,-4,-1
1.52968E+15,2,-8,-7,-5,-2,7,7,-1
1.52968E+15,3,1,10,1,0,-6,-5,14
1.52968E+15,-3,-6,-12,-6,-1,3,-12,-18
1.52968E+15,-2,7,-3,-4,-8,-23,-4,4
1.52968E+15,2,0,-4,4,7,27,3,5
1.52968E+15,-1,4,-5,-10,0,0,4,-1
1.52968E+15,0,-5,-9,2,-1,-8,3,5
1.52968E+15,-5,-8,-9,-5,-2,-4,-11,-5
1.52968E+15,2,11,34,4,-2,-12,-1,4
1.52968E+15,-1,-6,-14,-4,-5,8,-20,-6
1.52968E+15,-3,-3,6,1,2,5,6,5
1.52968E+15,-1,-5,-5,3,6,1,-3,-9
1.52968E+15,-2,-4,13,3,-7,-10,3,-3
1.52968E+15,-2,1,-6,-2,2,0,20,7
1.52968E+15,2,3,1,6,5,0,-1,-4
1.52968E+15,2,0,6,2,-1,6,8,6
1.52968E+15,-4,-15,-2,-5,-4,-5,-10,-13
1.52968E+15,-4,6,-4,-2,-6,-8,-24,-1
1.52968E+15,-2,-9,-7,-2,3,-1,-6,-1
1.52968E+15,-3,-3,-4,-6,-6,4,9,0
1.52968E+15,3,5,0,1,3,-10,1,7
1.52968E+15,1,10,7,6,2,6,9,-6
1.52968E+15,-3,-11,3,0,1,8,2,4
1.52968E+15,5,39,29,9,3,-4,-23,-10
1.52968E+15,-10,-46,-6,-5,-9,-5,5,4
1.52968E+15,-2,-7,-26,-3,-3,0,-1,-7
1.52968E+15,1,3,3,0,-2,-8,-24,0
1.52968E+15,2,8,-5,-1,-1,5,15,1
1.52968E+15,2,7,-15,-6,-4,-8,-13,0
1.52968E+15,3,35,38,8,2,-8,-4,7
1.52968E+15,-1,-5,-11,-1,-1,5,11,13
1.52968E+15,-3,-10,-11,-3,-5,-6,13,-4
1.52968E+15,7,14,7,-1,4,9,9,0
1.52968E+15,-3,-23,1,-4,-4,-4,-23,3
1.52968E+15,5,5,19,3,-4,-5,0,-7
1.52968E+15,0,-5,-4,5,2,-6,5,6
1.52968E+15,-1,1,-2,5,8,15,6,4
1.52968E+15,-3,-14,-31,-10,1,7,34,-2
1.52968E+15,-2,8,22,-2,-4,-2,-9,-7
1.52968E+15,1,-1,2,1,-1,-1,-11,-1
1.52968E+15,1,-5,23,8,2,2,-6,13
1.52968E+15,-3,2,-14,-9,1,-6,15,-4
1.52968E+15,-5,-5,-7,2,0,-5,9,-6
1.52968E+15,2,-9,2,-9,-8,3,0,6
1.52968E+15,4,13,0,1,0,-11,9,-3
1.52968E+15,-2,-6,-8,6,8,12,8,3
1.52968E+15,2,3,-13,0,1,8,-26,1
1.52968E+15,2,21,25,4,2,-2,-28,-15
1.52968E+15,-8,-4,-6,-3,-8,-13,-4,-19
1.52968E+15,2,-7,-21,-12,-8,-12,-3,-10
1.52968E+15,-3,-7,-22,1,10,27,25,1
1.52968E+15,-2,-2,12,2,1,-1,0,12
1.52968E+15,3,8,27,7,-2,-1,-14,-1
1.52968E+15,3,3,2,2,-1,1,9,15
1.52968E+15,2,-4,11,-9,-13,-19,14,21
1.52968E+15,-4,-3,-30,-7,-4,-2,0,-9
1.52968E+15,-6,-17,-16,-9,-1,-3,5,7
1.52968E+15,4,11,25,9,4,-4,-9,-1
1.52968E+15,-2,0,-3,-2,1,-3,3,2
1.52968E+15,1,-4,17,0,0,2,4,9
1.52968E+15,4,10,-8,5,1,-5,6,9
1.52968E+15,-4,-9,-3,-11,-6,-2,-4,-8
1.52968E+15,-2,-10,-11,-4,-4,-6,-4,-12
1.52968E+15,0,3,1,3,1,-4,6,0
1.52968E+15,2,-7,6,10,4,14,2,-3
1.52968E+15,-2,-6,-16,-10,0,-2,11,-3
1.52968E+15,-2,5,15,3,5,-1,-14,-7
1.52968E+15,0,-2,-4,2,-3,-4,-3,-4
1.52968E+15,-2,-4,-25,-13,-4,-4,-3,3
1.52968E+15,1,3,29,17,0,-7,-20,-12
1.52968E+15,2,4,-16,-13,-3,-1,8,10
1.52968E+15,-4,6,40,4,1,3,7,-17
1.52968E+15,-5,-1,-41,-13,-5,-20,-28,-5
1.52968E+15,1,0,-5,-11,-6,2,11,17
1.52968E+15,1,1,3,5,0,-10,-30,-13
1.52968E+15,-2,3,-10,2,6,10,13,4
1.52968E+15,2,9,10,4,1,13,38,-5
1.52968E+15,-4,-35,0,1,-4,-13,-28,3
1.52968E+15,-1,24,14,-1,-7,-7,12,10
1.52968E+15,-7,-27,-25,-12,-5,-7,-3,-14
1.52968E+15,-1,8,14,5,2,-7,12,17
1.52968E+15,0,17,22,7,8,9,1,-21
1.52968E+15,-5,-32,-24,-8,-3,12,-7,-11
1.52968E+15,2,10,0,0,-2,-11,9,7
1.52968E+15,-3,-12,-14,-2,-1,6,-4,-4
1.52968E+15,1,-1,-15,1,4,0,-1,-1
1.52968E+15,-2,5,11,1,-3,-11,-29,-17
1.52968E+15,0,-6,-19,-1,4,9,12,5
1.52968E+15,-3,-7,4,-5,-2,-2,-5,0
1.52968E+15,1,16,20,15,2,8,-5,2
1.52968E+15,-1,11,-1,1,-1,-13,7,2
1.52968E+15,-2,-5,-8,-14,-6,5,1,7
1.52968E+15,-3,2,12,1,3,2,-25,-15
1.52968E+15,4,1,-16,0,2,-6,-10,-9
1.52968E+15,-4,-9,-8,0,-2,-1,4,2
1.52968E+15,0,-4,4,5,5,2,-1,4
1.52968E+15,8,16,-10,3,4,11,9,9
1.52968E+15,-20,-13,9,-16,-12,2,-8,-33
1.52968E+15,5,13,9,9,1,-11,-5,3
1.52968E+15,-1,-3,-3,6,4,15,-8,0
1.52968E+15,-1,2,-8,-15,-4,-10,-22,-10
1.52968E+15,3,17,2,-1,-2,-1,6,9
1.52968E+15,3,2,12,4,3,9,4,2
1.52968E+15,-4,-2,-7,0,-4,-13,-12,-9
1.52968E+15,-2,-13,4,4,-1,-1,-10,-7
1.52968E+15,1,-1,2,-1,2,-4,-5,2
1.52968E+15,1,-5,-11,-5,1,9,17,16
1.52968E+15,6,1,8,9,3,5,28,20
1.52968E+15,6,13,-2,-5,-8,-8,-16,-9
1.52968E+15,-4,-7,4,3,1,0,4,7
1.52968E+15,-5,-16,4,-10,-8,-4,4,-9
1.52968E+15,-3,1,-28,-3,0,4,-16,-11
1.52968E+15,1,9,-5,-1,2,2,19,18
1.52968E+15,2,8,34,8,-5,-6,5,-7
1.52968E+15,-4,-28,-26,-9,-1,-10,-7,-6
1.52968E+15,-5,7,8,1,5,12,-6,-3
1.52968E+15,1,4,-3,-1,-2,1,0,-3
1.52968E+15,-1,-1,-11,-7,-5,-7,7,0
1.52968E+15,-2,19,15,7,1,2,6,-7
1.52968E+15,-3,-14,-14,-6,-4,-9,11,-1
1.52968E+15,-2,-12,7,11,6,1,-12,-4
1.52968E+15,-1,1,-12,-10,-9,-4,10,8
1.52968E+15,3,21,13,4,2,2,16,2
1.52968E+15,-5,-29,-17,-8,-1,-5,-4,2
1.52968E+15,2,8,1,3,1,5,13,6
1.52968E+15,1,-6,-9,-3,1,-4,-24,-2
1.52968E+15,-4,-2,-1,2,0,-7,2,-12
1.52968E+15,5,14,22,9,3,12,-4,1
1.52968E+15,-1,-6,-10,-9,-10,-10,3,-1
1.52968E+15,-1,4,10,-3,0,-2,1,-1
1.52968E+15,-5,-18,-22,1,-4,-9,4,1
1.52968E+15,3,10,-1,-5,1,7,5,2
1.52968E+15,-4,-8,-5,2,3,-3,0,-3
1.52968E+15,1,7,11,0,-2,-2,-1,-7
1.52968E+15,-1,-13,-18,-2,0,13,-21,3
1.52968E+15,0,2,25,5,-9,-24,-11,12
1.52968E+15,1,12,12,5,4,16,8,-3
1.52968E+15,-2,-15,-36,0,8,11,1,-3
1.52968E+15,2,24,28,4,-2,-1,18,12
1.52968E+15,-3,-11,-15,-9,-2,0,-6,-11
1.52968E+15,-4,-3,-7,-9,-8,-8,2,14
1.52968E+15,7,-2,28,6,-6,-9,20,26
1.52968E+15,0,15,6,9,10,12,2,-1
1.52968E+15,-2,-25,-39,-8,-3,9,-3,-3
1.52968E+15,6,12,5,6,6,-9,6,3
1.52968E+15,-4,-9,-3,-3,-2,3,-6,-7
1.52968E+15,4,6,20,6,-5,0,1,1
1.52968E+15,-2,1,4,-4,-6,-6,-6,-4
1.52968E+15,-2,-1,-15,-3,0,5,-7,2
1.52968E+15,0,-5,-6,1,3,3,1,4
1.52968E+15,2,7,9,-1,2,-4,-4,-2
1.52968E+15,-1,-3,-8,-3,-3,-1,15,-3
1.52968E+15,0,-2,7,0,-3,-4,-14,-6
1.52968E+15,2,3,-25,0,0,-6,-14,0
1.52968E+15,2,-2,-4,-3,-1,-8,-14,7
1.52968E+15,-4,4,19,4,0,16,27,14
1.52968E+15,1,-7,-7,-5,0,-17,-19,7
1.52968E+15,-6,-5,6,4,3,7,-7,-9
1.52968E+15,1,-1,-27,-8,-4,-3,-7,-6
1.52968E+15,1,5,21,5,0,-4,-7,-6
1.52968E+15,-2,1,22,4,-2,4,26,5
1.52968E+15,-1,2,-12,-3,5,13,-2,4
1.52968E+15,-2,-5,-10,-3,-1,5,10,8
1.52968E+15,-2,8,-8,-4,-6,-7,-3,-13
1.52968E+15,5,23,17,3,-1,-2,-4,-5
1.52968E+15,-3,-45,-18,-4,0,-4,0,-1
1.52968E+15,-1,0,-8,2,5,8,13,1
1.52968E+15,-2,-9,14,2,-4,-3,-10,-4
1.52968E+15,-6,-11,-1,-5,-4,-6,0,-6
1.52968E+15,2,16,5,2,-1,3,-8,-2
1.52968E+15,6,6,15,3,6,1,10,6
1.52968E+15,5,-5,-7,0,1,5,-3,7
1.52968E+15,-11,-7,-22,-14,-8,-3,12,-17
1.52968E+15,-1,1,-5,5,6,2,11,-4
1.52968E+15,-3,-8,11,5,4,-4,-1,-2
1.52968E+15,5,13,-2,-2,-6,-3,7,-1
1.52968E+15,-8,-14,7,-7,-7,-7,-22,-6
1.52968E+15,1,-10,-6,3,1,-3,2,4
1.52968E+15,0,24,13,-6,-9,-7,-3,-11
1.52968E+15,-3,-7,-11,-3,4,9,-10,-6
1.52968E+15,0,5,-2,1,-1,-3,-6,0
1.52968E+15,0,-11,-4,-1,0,1,-3,-2
1.52968E+15,0,-15,-4,0,-2,0,4,5
1.52968E+15,-2,22,8,-3,-5,-8,-27,-20
1.52968E+15,0,-12,-22,3,5,6,13,-7
1.52968E+15,-5,5,18,-9,-8,-1,-8,3
1.52968E+15,0,4,20,5,-1,-4,1,-3
1.52968E+15,-1,-6,-8,-3,-4,-2,15,6
1.52968E+15,2,-3,9,4,5,6,-18,-4
1.52968E+15,1,13,-12,2,-1,-7,12,3
1.52968E+15,-4,-17,-8,-12,-6,-2,-19,-4
1.52968E+15,1,1,16,7,7,4,-13,-1
1.52968E+15,-1,2,-1,0,-4,-13,-2,3
1.52968E+15,-2,-10,-4,1,-2,10,2,-11
1.52968E+15,0,25,-22,-5,-1,-4,-1,8
1.52968E+15,-6,-7,9,-2,-3,-7,-3,-2
1.52968E+15,-2,-2,3,1,4,4,10,-1
1.52968E+15,0,7,12,2,1,-6,2,0
1.52968E+15,1,-11,0,1,0,-2,-10,0
1.52968E+15,1,6,-14,-9,-3,0,6,-6
1.52968E+15,3,-12,-17,-2,-1,0,-15,15
1.52968E+15,3,-3,26,4,-3,-17,-6,-3
1.52968E+15,1,5,-1,13,12,19,19,5
1.52968E+15,0,-5,-20,-9,-2,8,-5,6
1.52968E+15,-1,0,-21,-8,-2,7,10,-2
1.52968E+15,2,-5,22,0,-6,-9,3,9
1.52968E+15,0,-14,11,8,-2,-1,9,0
1.52968E+15,-1,0,-7,-3,-5,-10,-17,0
1.52968E+15,0,-4,1,-5,-1,-7,-4,-2
1.52968E+15,1,13,-12,-1,6,16,5,0
1.52968E+15,0,-2,-4,-3,1,-7,-2,-2
1.52968E+15,4,4,3,5,3,6,16,8
1.52968E+15,4,-1,2,0,-8,-3,-13,11
1.52968E+15,2,24,10,1,2,-3,16,3
1.52968E+15,-2,-7,-10,-16,-8,-10,-15,-7
1.52968E+15,-1,-8,-7,-2,6,14,7,2
1.52968E+15,0,-4,17,7,4,-6,-2,5
1.52968E+15,-2,3,-9,-2,-3,1,6,-10
1.52968E+15,-6,-2,-8,-6,-7,-5,-7,-2
1.52968E+15,-1,-4,-8,-2,-2,-8,-9,3
1.52968E+15,-2,7,20,9,0,-5,-4,-4
1.52968E+15,0,7,-5,-6,-6,-1,-16,-1
1.52968E+15,-4,-14,1,-4,-5,-2,3,-7
1.52968E+15,0,0,-18,-7,3,-1,-8,-3
1.52968E+15,-2,-10,-12,-1,2,7,9,-2
1.52968E+15,-1,12,3,-5,-7,-14,-17,-10
1.52968E+15,0,10,4,4,0,10,-13,-10
1.52968E+15,-3,-8,13,5,0,0,15,11
1.52968E+15,-1,6,0,8,0,-6,1,-7
1.52968E+15,-1,-11,-13,-6,-3,-9,-3,0
1.52968E+15,-5,-15,3,3,1,7,4,-5
1.52968E+15,2,7,6,2,2,-3,12,-7
1.52968E+15,-3,-7,-6,-6,0,2,-25,-3
1.52968E+15,-1,-7,1,4,1,2,0,5
1.52968E+15,1,0,-26,-6,0,6,3,1
1.52968E+15,-5,-1,22,3,-5,-11,-4,-2
1.52968E+15,5,18,6,0,4,14,11,4
1.52968E+15,-2,-8,-9,-6,-3,0,-7,0
1.52968E+15,-8,-11,-9,-2,-1,-14,-7,-23
1.52968E+15,1,5,-16,-10,-7,-4,-4,0
1.52968E+15,1,14,7,2,-2,-2,10,0
1.52968E+15,0,3,2,0,0,1,-3,-2
1.52968E+15,1,2,12,2,-2,-8,-1,4
1.52968E+15,-1,5,7,5,1,-3,-4,-2
1.52968E+15,-3,-19,12,1,1,-4,3,1
1.52968E+15,4,5,-42,3,9,8,18,14
1.52968E+15,1,-2,23,-3,-3,-4,3,6
1.52968E+15,-2,-2,7,-3,-6,-4,-14,-3
1.52968E+15,1,-2,-1,-1,0,8,-1,2
1.52968E+15,1,14,7,0,-4,-7,-14,-8
1.52968E+15,3,4,-6,2,0,0,9,3
1.52968E+15,3,-3,-5,0,1,-8,-5,6
1.52968E+15,-4,-12,-26,-12,-3,6,1,-13
1.52968E+15,-4,-2,20,-4,-2,-2,-4,-5
1.52968E+15,2,-8,-10,-1,7,13,2,8
1.52968E+15,0,15,28,13,6,-1,-2,-6
1.52968E+15,0,10,-1,-4,-9,-15,0,-5
1.52968E+15,-7,-14,-9,-6,-9,2,13,8
1.52968E+15,0,1,-7,-1,3,2,4,6
1.52968E+15,0,-4,-13,5,5,2,-2,4
1.52968E+15,-1,21,22,1,-2,-1,1,0
1.52968E+15,0,-12,-11,-11,-9,-1,0,0
1.52968E+15,-2,2,21,6,0,-4,2,3
1.52968E+15,2,3,-35,-12,0,6,15,8
1.52968E+15,3,-5,-15,2,5,-3,5,0
1.52968E+15,-4,-9,19,5,1,3,-9,-4
1.52968E+15,2,9,-19,-10,-1,-4,-12,-4
1.52968E+15,-1,-12,23,0,-3,1,8,0
1.52968E+15,-1,-1,0,0,-2,-7,3,6
1.52968E+15,4,16,0,6,9,7,-5,0
1.52968E+15,-3,-20,-17,-3,-2,-5,3,3
1.52968E+15,-1,12,4,3,0,2,3,-3
1.52968E+15,-4,-12,-9,-5,-7,-8,-10,0
1.52968E+15,2,4,8,2,6,3,-3,-2
1.52968E+15,-2,7,1,3,-3,-4,-4,-4
1.52968E+15,-5,-9,-14,-11,-4,-2,4,3
1.52968E+15,-2,-3,-21,-5,1,-1,-1,0
1.52968E+15,1,3,17,2,1,3,9,7
1.52968E+15,-3,-17,10,9,2,1,-1,-12
1.52968E+15,-1,21,8,4,-2,3,6,-7
1.52968E+15,-7,-14,-8,-6,-6,-8,-7,-11
1.52968E+15,1,10,-2,0,-3,-12,-2,-6
1.52968E+15,3,7,-6,0,2,16,-6,1
1.52968E+15,-4,-18,-22,-7,-1,-9,-8,-3
1.52968E+15,-2,-6,18,-2,-1,6,11,0
1.52968E+15,3,8,-1,0,-5,4,6,2
1.52968E+15,1,1,7,-4,-3,-6,-4,-2
1.52968E+15,0,-1,-1,7,3,-1,-1,3
1.52968E+15,-3,-36,-36,-11,1,2,-10,0
1.52968E+15,-3,-27,-1,0,1,-2,7,1
1.52968E+15,-4,12,-4,-8,-7,-7,-3,1
1.52968E+15,4,13,7,5,0,5,-12,-6
1.52968E+15,-2,2,21,4,-3,-2,8,12
1.52968E+15,1,7,-17,3,3,2,-10,-3
1.52968E+15,4,4,6,1,0,-7,-22,-13
1.52968E+15,-2,-24,2,-1,1,1,8,8
1.52968E+15,4,17,-2,0,-2,1,-2,-12
1.52968E+15,-9,-20,14,2,-2,-3,-5,-3
1.52968E+15,2,15,4,-3,-4,-2,13,10
1.52968E+15,-3,-7,4,1,-6,-11,-28,-15
1.52968E+15,-2,3,-3,5,6,8,23,4
1.52968E+15,-4,-6,-7,-5,2,-5,-10,-3
1.52968E+15,1,-1,19,8,0,3,5,3
1.52968E+15,0,-4,0,-1,-3,-13,4,1
1.52968E+15,2,2,-4,-9,-1,1,0,7
1.52968E+15,0,6,-4,-2,3,16,8,-4
1.52968E+15,-2,-6,-3,-1,4,-6,4,5
1.52968E+15,-3,-15,-7,-4,-2,5,10,5
1.52968E+15,6,36,27,12,0,2,-2,4
1.52968E+15,0,-14,-11,-8,-6,-8,5,3
1.52968E+15,-2,-23,-3,1,3,1,-8,-4
1.52968E+15,3,1,-5,6,5,13,-2,8
1.52968E+15,-3,-11,-13,-11,-2,-4,-7,-7
1.52968E+15,1,0,4,4,0,-7,-2,11
1.52968E+15,0,0,-26,-3,-3,-4,6,11
1.52968E+15,-2,0,6,1,-3,-4,4,-16
1.52968E+15,-1,4,14,-3,-2,5,-5,-3
1.52968E+15,-3,0,-12,-1,1,-5,-8,-9
1.52968E+15,-1,5,3,-2,-1,-3,-6,-4
1.52968E+15,3,11,-5,-1,1,0,-11,9
1.52968E+15,-1,1,20,2,-3,-3,12,-14
1.52968E+15,2,6,-2,-1,-2,4,-8,-1
1.52968E+15,-2,-5,-2,0,1,3,2,0
1.52968E+15,-4,-4,-16,-8,-7,-3,-10,-10
1.52968E+15,2,7,17,4,1,-5,-2,-1
1.52968E+15,0,8,-12,3,5,-1,-14,-7
1.52968E+15,-2,-6,13,-4,-5,-2,-2,-7
1.52968E+15,-3,9,-3,3,1,0,9,1
1.52968E+15,0,-9,-12,-5,1,5,-2,6
1.52968E+15,3,13,-4,-7,-9,-8,6,0
1.52968E+15,1,8,0,2,-1,5,6,7
1.52968E+15,-2,-12,0,-7,4,0,-1,-2
1.52968E+15,-4,-11,-1,13,6,10,7,3
1.52968E+15,-4,-6,-5,-8,-4,-3,5,0
1.52968E+15,-1,6,-3,-1,0,4,-8,-6
1.52968E+15,1,9,5,-1,-2,-3,-5,2
1.52968E+15,-4,-22,-1,3,0,-8,-6,-2
1.52968E+15,4,10,20,7,-1,-4,4,7
1.52968E+15,-3,3,-13,-13,-5,-3,-3,-2
1.52968E+15,0,-17,-12,-4,-1,1,8,1
1.52968E+15,0,8,-9,-7,-7,-14,-18,-14
1.52968E+15,0,0,8,3,3,11,25,12
1.52968E+15,-4,5,-3,0,-2,-9,-25,-10
1.52968E+15,-1,10,32,6,6,10,4,0
1.52968E+15,0,3,6,4,2,5,11,6
1.52968E+15,-1,-8,-6,0,-3,1,-6,-6
1.52968E+15,0,2,-26,-15,-7,-10,6,0
1.52968E+15,0,-10,-13,-6,-5,3,-10,2
1.52968E+15,14,9,1,-1,-2,-5,-9,6
1.52968E+15,-3,-1,3,6,4,-13,-9,-7
1.52968E+15,-3,-6,-13,5,6,15,16,0
1.52968E+15,1,9,21,2,-4,-8,7,-6
1.52968E+15,-3,-5,38,8,-4,-11,-8,7
1.52968E+15,2,0,-70,-29,-7,2,1,-9
1.52968E+15,2,-2,20,9,5,-1,-1,1
1.52968E+15,-4,-4,-15,-3,0,-1,9,-3
1.52968E+15,-3,12,-9,-5,-2,0,-8,-10
1.52968E+15,-6,-28,7,4,-4,-10,-13,12
1.52968E+15,-1,17,6,4,2,11,0,-3
1.52968E+15,3,3,-2,1,3,3,6,2
1.52968E+15,2,5,-2,3,3,5,0,4
1.52968E+15,-1,4,19,2,-2,-5,-12,-11
1.52968E+15,-1,-15,-27,-10,-4,-8,7,3
1.52968E+15,-1,2,22,4,-4,4,-7,-7
1.52968E+15,-3,3,-10,-2,-1,-5,7,-5
1.52968E+15,-2,0,-4,-2,0,-4,6,2
1.52968E+15,-5,-20,20,-2,0,3,-15,-10
1.52968E+15,0,4,-20,-5,0,-8,-9,-3
1.52968E+15,-2,5,8,5,-2,-4,-8,6
1.52968E+15,-3,8,-6,-2,-1,6,0,-5
1.52968E+15,2,8,31,10,2,-5,19,5
1.52968E+15,-5,-13,-17,-2,-6,-18,-11,0
1.52968E+15,-5,-4,-48,-17,2,19,8,1
1.52968E+15,-1,2,25,9,6,-4,-2,-4
1.52968E+15,0,-13,-7,3,0,-4,8,10
1.52968E+15,-1,4,5,-1,-3,-1,12,-4
1.52968E+15,1,-11,-14,3,2,-11,7,15
1.52968E+15,1,0,-6,-7,-4,5,2,1
1.52968E+15,0,5,-4,-2,0,-1,-3,-3
1.52968E+15,1,7,13,7,3,0,-1,-1
1.52968E+15,-4,-6,8,0,-2,-1,2,-2
1.52968E+15,-1,-1,-2,4,-1,3,-23,-4
1.52968E+15,-3,-2,-7,-10,-7,-5,-6,-9
1.52968E+15,0,-5,-6,-3,1,2,-1,5
1.52968E+15,0,2,12,3,1,2,-11,-8
1.52968E+15,1,-1,-4,4,1,-4,0,4
1.52968E+15,0,3,-7,-4,-4,-1,2,3
1.52968E+15,-3,-6,0,-2,0,4,-8,-3
1.52968E+15,1,0,3,-7,0,-6,1,-3
1.52968E+15,-3,-5,20,4,-1,-1,5,-1
1.52968E+15,2,0,-11,-1,-2,0,3,3
1.52968E+15,0,3,-11,-7,0,6,5,2
1.52968E+15,0,-2,10,4,0,0,1,-2
1.52968E+15,1,-1,5,3,2,2,2,1
1.52968E+15,1,5,5,5,5,6,4,2
1.52968E+15,-1,-6,-7,-11,-7,-5,-11,6
1.52968E+15,-4,-3,-10,-2,-1,3,2,-3
1.52968E+15,-1,2,13,3,1,-4,5,-3
1.52968E+15,1,-2,-18,-7,-1,5,11,2
1.52968E+15,0,4,11,10,6,1,-32,1
1.52968E+15,4,4,-2,-4,-1,-3,-18,-7
1.52968E+15,-1,-7,-24,-6,1,5,-2,0
1.52968E+15,1,0,14,7,-5,-7,-29,-19
1.52968E+15,-9,-7,-6,-9,-9,-19,19,5
1.52968E+15,1,2,-12,1,5,2,8,4
1.52968E+15,2,6,22,-1,-4,-2,-2,-2
1.52968E+15,0,-5,12,5,0,0,-13,3
1.52968E+15,-1,-7,-42,-5,-3,-14,-9,-11
1.52968E+15,1,-6,13,8,4,8,3,2
1.52968E+15,-6,-12,-11,-13,-3,-1,13,1
1.52968E+15,0,10,-8,-2,1,0,4,5
1.52968E+15,8,18,19,8,2,-2,4,2
1.52968E+15,-5,-42,-37,-9,-5,-11,6,3
1.52968E+15,1,0,1,3,-4,3,-2,-2
1.52968E+15,0,-7,8,3,3,1,8,3
1.52968E+15,2,16,4,3,2,3,-6,4
1.52968E+15,-1,7,10,-3,-4,-1,2,-13
1.52968E+15,-2,-6,2,1,2,7,8,-2
1.52968E+15,1,-4,-3,-2,-3,-5,-8,-1
1.52968E+15,4,19,24,6,1,6,17,12
1.52968E+15,-7,-15,-30,-6,-6,-1,-2,-7
1.52968E+15,3,28,26,6,-1,-13,-16,-4
1.52968E+15,0,1,-22,-5,6,9,-2,7
1.52968E+15,-4,-15,-2,-7,-5,-5,8,-12
1.52968E+15,2,16,15,4,-2,-5,-9,-1
1.52968E+15,-2,-11,-17,-8,-5,-8,-10,-1
1.52968E+15,-1,2,12,4,4,3,14,5
1.52968E+15,0,-9,-6,4,4,1,3,1
1.52968E+15,-1,15,6,-3,-5,-7,-12,-1
1.52968E+15,-5,-29,-24,-4,-3,-2,0,-1
1.52968E+15,1,7,21,3,-2,-1,-6,-4
1.52968E+15,-4,-17,-34,-7,3,12,0,-1
1.52968E+15,3,14,38,2,1,13,10,2
1.52968E+15,0,15,-9,-2,0,-4,-9,-1
1.52968E+15,0,-10,-6,-7,-2,6,11,1
1.52968E+15,1,3,16,15,6,8,12,9
1.52968E+15,-8,-11,-41,-13,-2,-13,-12,-10
1.52968E+15,2,1,4,2,0,1,-4,3
1.52968E+15,-2,0,20,2,-4,-2,2,-7
1.52968E+15,1,4,5,-2,2,0,-13,-6
1.52968E+15,3,4,-1,-1,-3,-7,13,9
1.52968E+15,-5,-7,-8,-2,-1,0,6,-1
1.52968E+15,-2,-1,-14,1,-3,-6,-1,-6
1.52968E+15,-2,-4,1,-2,-3,-2,3,1
1.52968E+15,0,1,8,-1,-5,0,0,-2
1.52968E+15,4,-16,-16,-3,2,2,-14,6
1.52968E+15,1,19,20,9,6,1,15,6
1.52968E+15,-3,-2,-1,-11,-5,3,5,-4
1.52968E+15,-3,-5,-25,1,5,-5,-3,-2
1.52968E+15,-10,-2,15,3,1,0,33,-17
1.52968E+15,-3,-20,12,3,-5,-5,-23,-4
1.52968E+15,5,6,-31,-10,-5,0,-21,-4
1.52968E+15,-4,-21,-7,-1,-2,-5,1,-2
1.52968E+15,3,6,5,0,-1,2,-6,6
1.52968E+15,1,7,-2,-4,-1,-1,12,2
1.52968E+15,-1,-15,2,4,3,1,-6,-12
1.52968E+15,1,14,-3,-3,1,-3,-16,3
1.52968E+15,4,12,2,5,0,-8,-19,4
1.52968E+15,-7,-13,-13,-6,-5,13,14,-4
1.52968E+15,-5,6,30,6,5,0,2,-12
1.52968E+15,1,0,9,8,3,4,6,1
1.52968E+15,-5,-9,-12,-2,-3,-2,2,-5
1.52968E+15,0,6,-20,-1,0,-6,-1,8
1.52968E+15,-3,-21,-11,-4,-5,-11,-12,4
1.52968E+15,-2,-17,9,2,2,4,0,-6
1.52968E+15,1,0,1,3,-1,-5,-3,-12
1.52968E+15,2,1,-13,-8,-6,-3,-7,14
1.52968E+15,4,5,1,3,-3,-1,27,13
1.52968E+15,1,-16,-10,-3,4,2,2,4
1.52968E+15,6,44,42,6,-1,3,-3,2
1.52968E+15,1,-14,-6,0,1,-3,-5,-8
1.52968E+15,-2,-12,-1,-8,-2,2,-6,-10
1.52968E+15,3,20,9,3,-7,-9,-5,2
1.52968E+15,2,-9,-18,-7,0,0,7,6
1.52968E+15,-4,3,20,10,6,-2,-19,-12
1.52968E+15,-2,4,-3,7,5,2,24,1
1.52968E+15,0,0,-13,-7,-1,3,3,-2
1.52968E+15,-3,-5,5,-4,-3,6,4,8
1.52968E+15,3,12,26,3,0,6,-2,-1
1.52968E+15,-1,2,-3,3,-8,-12,-10,6
1.52968E+15,-4,-9,-17,-12,-5,3,-9,-8
1.52968E+15,1,4,5,6,6,-1,12,7
1.52968E+15,1,-9,-30,-12,-7,-5,-3,-4
1.52968E+15,2,11,16,2,1,3,4,7
1.52968E+15,2,-9,7,3,-4,-2,19,12
1.52968E+15,-2,0,-1,2,0,-1,-1,0
1.52968E+15,2,-8,-11,2,4,2,11,2
1.52968E+15,-1,9,7,1,-4,-10,-11,-7
1.52968E+15,2,8,19,-7,-2,7,1,4
1.52968E+15,-1,-5,-17,-3,2,5,9,-2
1.52968E+15,-3,-11,-14,-5,-4,-9,-13,-3
1.52968E+15,1,17,-9,-4,1,2,1,-7
1.52968E+15,-3,-18,0,5,0,1,-9,-4
1.52968E+15,-4,-10,-22,-11,-6,-5,9,0
1.52968E+15,-3,10,32,8,8,8,-5,-6
1.52968E+15,0,-1,20,7,3,-3,-6,3
1.52968E+15,0,6,-17,0,0,-2,-4,3
1.52968E+15,-2,15,14,-9,-16,-14,-4,-5
1.52968E+15,-1,0,-23,-9,-1,-5,-6,14
1.52968E+15,-2,-25,-15,-3,2,6,3,-2
1.52968E+15,1,12,21,8,7,1,1,-6
1.52968E+15,1,-5,-5,8,5,1,-3,2
1.52968E+15,-4,-2,-12,-6,-5,-6,5,8
1.52968E+15,-3,10,18,-10,-11,3,1,-4
1.52968E+15,-3,-8,-9,0,-2,-3,-4,-2
1.52968E+15,0,-5,-6,5,5,8,-5,-15
1.52968E+15,2,16,6,-5,-5,-10,18,20
1.52968E+15,1,10,-18,1,6,11,20,0
1.52968E+15,-9,-11,6,-5,-7,-9,2,-4
1.52968E+15,-2,-4,21,-6,-3,4,-3,-4
1.52968E+15,0,-8,-17,-1,-4,4,-1,-11
1.52968E+15,0,23,0,-1,0,-6,6,6
1.52968E+15,-7,-12,-8,-2,0,-11,-42,-19
1.52968E+15,2,8,2,3,1,3,9,7
1.52968E+15,-2,-2,13,0,-2,5,-14,-18
1.52968E+15,-1,-4,-9,-2,1,-15,-16,-5
1.52968E+15,6,9,-5,-1,-1,8,23,12
1.52968E+15,2,-4,15,5,2,-3,-1,3
1.52968E+15,1,7,-23,-7,-4,6,-3,-6
1.52968E+15,-2,-11,17,1,-5,-10,-10,-8
1.52968E+15,3,-2,7,2,4,2,3,6
1.52968E+15,-3,6,-9,-4,0,-6,-6,-3
1.52968E+15,1,6,21,10,2,1,-3,2
1.52968E+15,-1,-10,-7,0,2,3,-5,1
1.52968E+15,-1,8,-8,1,4,0,20,-5
1.52968E+15,-1,7,1,-7,-3,2,-13,2
1.52968E+15,-3,-8,2,-5,-6,-13,-5,-11
1.52968E+15,-2,-13,-17,-2,-3,-5,-1,7
1.52968E+15,3,19,17,-1,-11,-7,-12,-3
1.52968E+15,-2,-11,-8,2,5,-3,-6,-5
1.52968E+15,1,10,12,10,6,10,4,-1
1.52968E+15,-2,-9,-8,-11,-3,-3,-7,0
1.52968E+15,6,12,16,1,-2,-7,6,3
1.52968E+15,-2,-2,-8,-1,-2,3,6,10
1.52968E+15,0,-9,-7,0,0,4,-9,-1
1.52968E+15,-9,-7,2,1,-2,-5,1,-11
1.52968E+15,2,-2,2,1,2,4,6,9
1.52968E+15,-1,-32,-25,-4,-3,0,0,-4
1.52968E+15,3,20,0,-4,-2,-2,12,5
1.52968E+15,0,-18,-6,-1,2,-5,-5,3
1.52968E+15,-5,6,14,3,2,7,-2,-1
1.52968E+15,-1,3,23,3,-5,-3,9,3
1.52968E+15,-6,-10,-49,-22,-8,-7,-5,-5
1.52968E+15,5,12,21,9,2,-5,5,5
1.52968E+15,-1,-5,-14,-8,-3,-2,-9,-1
1.52968E+15,5,21,21,6,2,8,10,1
1.52968E+15,-1,-46,-16,3,6,-8,-2,13
1.52968E+15,3,18,14,11,7,13,-3,-7
1.52968E+15,-2,-7,-22,-15,-6,-7,9,8
1.52968E+15,-3,0,2,-5,-10,-7,-21,-10
1.52968E+15,2,10,-3,-7,-4,-3,8,5
1.52968E+15,-2,0,-8,3,6,1,-9,0
1.52968E+15,0,-2,6,5,-4,-2,-11,-1
1.52968E+15,-1,-3,-15,-5,-2,1,11,1
1.52968E+15,-1,28,23,6,1,6,0,-5
1.52968E+15,-4,-28,-11,-5,-3,-5,0,-1
1.52968E+15,2,6,-2,1,-2,-2,-6,2
1.52968E+15,-3,-12,-16,-6,-1,-6,-20,-4
1.52968E+15,2,17,6,2,-4,-2,14,-2
1.52968E+15,-5,4,-5,-3,-4,-5,-9,-2
1.52968E+15,-2,-21,-9,0,1,-2,-3,-7
1.52968E+15,-1,-17,-7,-4,-1,6,11,2
1.52968E+15,-3,4,21,12,2,0,-9,-15
1.52968E+15,-4,9,-14,-15,-10,-12,1,-2
1.52968E+15,2,13,7,6,1,-1,-2,3
1.52968E+15,2,-12,-24,2,5,-2,1,0
1.52968E+15,-5,-12,14,0,1,-2,18,4
1.52968E+15,4,8,5,3,2,9,14,5
1.52968E+15,0,-3,4,5,2,1,-7,-3
1.52968E+15,0,-2,-13,-6,-5,-1,-2,4
1.52968E+15,0,5,6,0,-2,-6,-10,-11
1.52968E+15,0,-13,12,3,-2,-3,6,2
1.52968E+15,1,22,0,-2,1,-3,1,7
1.52968E+15,0,0,-9,0,-4,-7,-3,0
1.52968E+15,-1,-5,5,-6,3,4,-1,0
1.52968E+15,-2,-24,-19,-14,-5,0,3,6
1.52968E+15,5,12,9,-2,-4,0,7,-3
1.52968E+15,1,-3,-11,1,3,0,18,9
1.52968E+15,0,3,16,10,10,5,-5,-5
1.52968E+15,-1,-1,-5,4,2,-9,-7,-4
1.52968E+15,0,-6,4,2,-1,9,8,0
1.52968E+15,-2,-8,1,0,-1,-3,-6,-4
1.52968E+15,2,0,24,2,-5,-2,-1,3
1.52968E+15,-1,-21,-13,-5,0,1,-1,3
1.52968E+15,-8,-7,-13,-5,-6,-12,-23,-10
1.52968E+15,-3,6,0,1,-1,6,0,-5
1.52968E+15,1,2,-12,2,0,1,2,3
1.52968E+15,-1,9,-5,-1,0,-8,-6,-2
1.52968E+15,-3,-10,-3,-5,-2,4,12,-6
1.52968E+15,0,4,2,-6,1,8,-20,-1
1.52968E+15,0,0,2,0,-3,-3,18,4
1.52968E+15,2,10,-7,-1,-2,-12,-11,6
1.52968E+15,-1,3,9,3,2,0,-7,-6
1.52968E+15,-1,8,11,-2,-1,-5,-6,-6
1.52968E+15,-3,-11,-8,3,3,4,0,6
1.52968E+15,1,4,-2,-8,-6,-12,6,-2
1.52968E+15,-1,9,20,7,6,15,11,2
1.52968E+15,2,6,-13,-5,-7,-4,0,-4
1.52968E+15,-1,-15,-7,-7,-9,-7,-5,-4
1.52968E+15,2,-4,3,6,6,1,-4,-4
1.52968E+15,-5,10,-10,-2,1,-3,7,8
1.52968E+15,2,14,24,5,5,0,15,1
1.52968E+15,2,-15,-21,-2,-3,0,-6,-2
1.52968E+15,-5,-2,12,4,-2,6,-3,-2
1.52968E+15,2,-9,-7,2,1,4,-16,-1
1.52968E+15,0,19,13,-1,-5,-16,-8,0
1.52968E+15,-5,-14,-21,-8,2,11,17,-7
1.52968E+15,-1,16,16,5,-3,-2,-8,4
1.52968E+15,0,-8,-15,-3,1,-3,5,-2
1.52968E+15,-5,-11,10,4,4,2,-1,-5
1.52968E+15,4,5,-21,-8,-1,-9,1,17
1.52968E+15,1,6,27,-1,-6,2,9,-1
1.52968E+15,3,19,7,1,-2,-2,9,-3
1.52968E+15,0,-5,-7,3,2,2,-7,0
1.52968E+15,-5,-15,4,3,-2,-5,-1,-6
1.52968E+15,2,23,-27,-14,-7,-8,-5,-2
1.52968E+15,0,0,4,0,1,-3,-3,4
1.52968E+15,0,-18,5,-1,2,7,12,-2
1.52968E+15,-2,11,10,0,-5,-3,-8,0
1.52968E+15,-3,2,-1,3,-3,-5,15,-2
1.52968E+15,-1,-11,-11,-3,-3,-5,-9,6
1.52968E+15,-2,-3,7,-2,-1,-1,3,-1
1.52968E+15,-1,-5,-4,-1,2,5,-2,8
1.52968E+15,5,4,-1,3,0,-8,-5,-5
1.52968E+15,-3,-11,-21,-13,-8,-5,11,5
1.52968E+15,3,5,38,18,4,11,2,3
1.52968E+15,1,19,-28,-16,-4,-15,-15,-9
1.52968E+15,-4,-34,-4,-6,-1,4,6,2
1.52968E+15,5,3,-11,-3,-2,6,-3,-9
1.52968E+15,1,11,-5,1,0,-8,-18,1
1.52968E+15,-1,-7,8,5,3,7,-10,-9
1.52968E+15,-3,-2,-13,0,1,-1,-3,-2
1.52968E+15,-1,-2,14,7,1,2,-15,-15
1.52968E+15,-4,4,-6,-6,-9,-6,6,13
1.52968E+15,1,9,27,8,1,-5,-1,1
1.52968E+15,0,1,-14,-10,1,-1,-2,-2
1.52968E+15,-7,-9,23,0,-5,-10,-12,-19
1.52968E+15,4,-4,-33,-3,3,5,-8,-1
1.52968E+15,1,6,12,4,1,-1,0,-4
1.52968E+15,-2,-3,-3,0,-3,-3,-9,4
1.52968E+15,0,7,13,5,0,8,5,2
1.52968E+15,0,-14,-6,-4,-1,-7,-3,-12
1.52968E+15,2,21,-19,-6,-2,4,4,11
1.52968E+15,-6,-5,30,5,3,5,5,0
1.52968E+15,2,13,-7,-1,5,-1,16,6
1.52968E+15,-5,-1,10,1,-5,-12,-14,-4
1.52968E+15,-2,-11,-26,-12,-4,3,-3,-3
1.52968E+15,5,7,13,8,-1,-4,-4,1
1.52968E+15,3,0,-9,-3,5,4,19,6
1.52968E+15,-4,-6,6,-2,-6,5,4,0
1.52968E+15,-4,-6,-5,-5,-5,-12,-10,-11
1.52968E+15,1,-4,-16,3,5,4,16,6
1.52968E+15,-2,3,23,6,0,-5,-34,-5
1.52968E+15,-2,-5,-5,-5,-2,1,6,-3
1.52968E+15,1,-8,9,0,-2,-1,-2,-1
1.52968E+15,2,5,-2,2,3,1,-6,-10
1.52968E+15,0,5,-8,1,-1,-2,20,10
1.52968E+15,3,6,-8,0,2,2,-4,-2
1.52968E+15,-2,3,2,-2,-4,4,-1,-4
1.52968E+15,2,0,11,5,0,-9,-2,1
1.52968E+15,0,-13,-17,-6,5,10,20,6
1.52968E+15,1,2,26,8,3,1,-11,2
1.52968E+15,-5,-8,-27,-12,-5,-9,9,2
1.52968E+15,2,7,5,-9,-4,-4,-11,1
1.52968E+15,1,3,19,-1,-12,-2,-6,-1
1.52968E+15,-2,-2,-7,1,3,-3,-1,-2
1.52968E+15,5,10,15,6,8,5,6,1
1.52968E+15,-6,-4,-14,0,-2,-1,-21,-9
1.52968E+15,-4,-11,-20,-3,-1,-9,-10,0
1.52968E+15,1,3,10,-3,-4,-1,1,-4
1.52968E+15,0,4,-9,1,2,-2,11,12
1.52968E+15,0,2,16,4,-2,0,7,4
1.52968E+15,-2,-13,-29,-12,-2,-8,-5,3
1.52968E+15,-2,1,0,-4,-4,-8,4,-4
1.52968E+15,0,-4,0,3,-1,15,-2,-2
1.52968E+15,-2,-6,11,-5,1,-4,4,-4
1.52968E+15,-4,-1,-1,1,-2,6,10,-2
1.52968E+15,-2,3,3,1,4,-5,-5,1
1.52968E+15,4,15,5,3,3,6,3,-6
1.52968E+15,-5,-25,-16,2,-7,-2,-7,0
1.52968E+15,-5,-11,-15,-5,-2,-5,-19,-5
1.52968E+15,1,-5,4,-5,-5,-5,-9,0
1.52968E+15,-2,-10,20,5,2,-4,13,3
1.52968E+15,4,18,6,14,9,15,0,6
1.52968E+15,-2,-9,-29,-19,-6,-12,0,-3
1.52968E+15,2,3,-23,-1,0,10,9,0
1.52968E+15,1,5,8,-6,-7,-5,-17,-2
1.52968E+15,-2,-2,3,-4,-2,-3,2,-1
1.52968E+15,-2,0,2,8,6,11,-2,1
1.52968E+15,2,7,7,6,4,4,1,1
1.52968E+15,-7,-12,-9,-5,-11,-18,-4,-15
1.52968E+15,1,3,2,0,6,10,-12,-3
1.52968E+15,3,8,7,3,-2,-11,-9,0
1.52968E+15,-6,-12,-37,-11,-1,7,5,-4
1.52968E+15,2,5,42,16,5,0,0,-4
1.52968E+15,-4,-34,-11,-8,-10,-8,7,-10
1.52968E+15,4,22,21,5,-5,-17,-8,-7
1.52968E+15,-4,-1,-8,-8,-3,6,5,3
1.52968E+15,-1,1,10,7,6,8,-2,-7
1.52968E+15,1,11,-37,-1,2,-7,-1,1
1.52968E+15,-4,-21,14,-5,-2,9,2,-2
1.52968E+15,3,2,-10,3,-4,0,8,1
1.52968E+15,-1,-3,14,1,1,-2,-2,6
1.52968E+15,-1,17,15,5,2,5,18,1
1.52968E+15,-4,-6,-12,-5,0,-1,-8,-7
1.52968E+15,2,-1,1,-2,-4,-4,5,-2
1.52968E+15,-1,-13,-7,-1,0,3,-1,-1
1.52968E+15,1,11,13,-3,-4,-7,1,0
1.52968E+15,3,9,0,3,0,0,2,9
1.52968E+15,0,5,17,3,0,5,9,12
1.52968E+15,1,-7,-14,-2,-1,-8,5,4
1.52968E+15,-4,-9,-8,-2,-2,2,6,-7
1.52968E+15,0,-9,-7,1,2,1,-1,2
1.52968E+15,-3,-7,1,3,-1,-2,3,-10
1.52968E+15,-1,-5,-11,-5,-4,-3,-6,0
1.52968E+15,1,3,-14,-3,-6,-6,-6,7
1.52968E+15,0,5,20,9,1,8,1,-12
1.52968E+15,-3,-4,13,2,3,-1,6,5
1.52968E+15,0,6,-9,-6,-1,-8,-5,0
1.52968E+15,-5,-13,16,-1,-3,-2,-6,-7
1.52968E+15,2,2,-18,-7,-3,-5,-2,-1
1.52968E+15,-6,-5,-4,-3,-3,1,-19,-3
1.52968E+15,1,4,4,-1,-2,-1,-15,-4
1.52968E+15,0,-3,-7,-3,3,0,-5,1
1.52968E+15,-2,-2,6,2,3,3,2,7
1.52968E+15,-4,0,-12,-1,1,2,-4,-25
1.52968E+15,-5,-10,-3,1,-1,-2,10,2
1.52968E+15,4,8,8,3,-1,-3,-14,3
1.52968E+15,0,3,-12,4,-1,2,16,8
1.52968E+15,-1,-6,4,-10,-3,-11,-4,5
1.52968E+15,-2,-1,2,7,3,7,-12,-2
1.52968E+15,2,-2,-13,-13,-2,3,13,-2
1.52968E+15,-2,-3,9,3,1,-3,2,-2
1.52968E+15,4,5,-18,-2,3,2,8,9
1.52968E+15,4,14,19,5,1,1,-14,-2
1.52968E+15,-6,-20,2,-5,-9,-14,5,7
1.52968E+15,-2,15,9,1,-1,2,0,-6
1.52968E+15,0,-6,3,10,2,-7,-9,2
1.52968E+15,-3,-10,-28,-20,-5,4,-3,-14
1.52968E+15,1,11,-4,-4,-2,2,-2,-1
1.52968E+15,0,3,1,-5,-5,-1,-2,5
1.52968E+15,2,7,18,10,1,1,1,-2
1.52968E+15,-2,-15,-7,2,-2,-10,-3,5
1.52968E+15,-3,-4,-5,-1,0,-10,-9,-9
1.52968E+15,0,-11,-3,2,-3,9,0,0
1.52968E+15,3,13,4,-1,5,12,5,6
1.52968E+15,2,-3,-5,-4,-3,-9,-4,2
1.52968E+15,0,3,10,3,-4,-11,-9,1
1.52968E+15,-1,-4,-15,0,5,7,10,-1
1.52968E+15,0,-2,4,2,-2,1,7,0
1.52968E+15,1,0,4,1,1,-9,-25,-4
1.52968E+15,-3,5,-1,7,3,3,17,11
1.52968E+15,-2,-13,0,-7,-8,-8,-14,-7
1.52968E+15,-2,-6,-15,-8,-4,0,-10,-5
1.52968E+15,0,6,-2,2,0,-5,6,4
1.52968E+15,0,7,8,3,4,8,-3,-3
1.52968E+15,-5,-16,-22,-4,0,-3,1,-6
1.52968E+15,-2,3,20,8,-1,-1,-1,0
1.52968E+15,-7,-13,-4,-18,-10,-12,-1,0
1.52968E+15,1,-13,-18,-8,-5,-2,0,2
1.52968E+15,2,8,11,2,4,5,2,1
1.52968E+15,2,-17,-8,-3,0,-1,-3,-1
1.52968E+15,-3,-6,2,4,-1,1,8,-2
1.52968E+15,4,-2,-7,2,0,-1,-11,-17
1.52968E+15,3,18,18,2,5,4,9,15
1.52968E+15,-2,5,3,1,-4,-7,-11,0
1.52968E+15,4,2,-6,3,1,0,11,0
1.52968E+15,-8,-6,6,-1,-4,-1,5,2
1.52968E+15,0,2,-6,-4,-4,-7,-7,-4
1.52968E+15,2,-11,-12,-6,4,9,16,10
1.52968E+15,-1,25,20,10,4,8,-2,-15
1.52968E+15,-8,-1,-9,-12,-8,-8,-10,0
1.52968E+15,-2,-23,4,0,0,2,3,1
1.52968E+15,0,18,-6,-2,-3,-3,-1,-7
1.52968E+15,0,-7,-11,-3,-1,-1,-2,5
1.52968E+15,3,11,7,8,8,9,1,-1
1.52968E+15,-3,3,-9,-1,0,-5,4,-10
1.52968E+15,-3,-5,19,-2,-3,4,-16,-8
1.52968E+15,-1,2,-4,-5,-5,1,9,9
1.52968E+15,2,5,13,7,3,-1,-2,-3
1.52968E+15,-1,3,-2,3,-1,-6,-8,3
1.52968E+15,-5,-4,-15,-7,-8,-11,2,-2
1.52968E+15,-2,-5,0,4,6,14,6,2
1.52968E+15,3,6,2,5,5,3,1,5
1.52968E+15,-4,-3,14,-7,-4,0,4,-5
1.52968E+15,-5,-8,-4,-1,-3,-5,1,-2
1.52968E+15,0,-3,-7,0,1,-3,12,-7
1.52968E+15,2,3,-13,-3,1,3,4,4
1.52968E+15,-2,0,9,3,-7,0,-15,-3
1.52968E+15,2,2,-7,0,1,-3,3,0
1.52968E+15,-4,-12,-26,-14,-4,-8,-27,0
1.52968E+15,0,-4,1,-5,-3,-7,-5,-4
1.52968E+15,2,12,32,13,3,-5,11,-1
1.52968E+15,-4,-11,-40,-17,-9,-6,-9,2
1.52968E+15,-1,-4,3,-3,0,5,14,7
1.52968E+15,-2,0,3,3,0,-6,3,-3
1.52968E+15,-3,-2,-14,-8,-6,-7,-10,4
1.52968E+15,4,-3,1,3,2,1,4,-2
1.52968E+15,-3,3,20,-1,-2,-14,-9,2
1.52968E+15,-4,-3,-11,-7,-2,1,-1,-3
1.52968E+15,4,-3,-5,1,2,9,6,5
1.52968E+15,5,15,5,8,9,8,0,1
1.52968E+15,1,1,4,4,4,-5,10,6
1.52968E+15,-1,2,6,0,-1,6,5,-1
1.52968E+15,-1,-1,-9,-2,-3,-8,6,8
1.52968E+15,0,11,5,-4,-2,7,-7,-4
1.52968E+15,2,-4,-5,2,0,-3,-13,-3
1.52968E+15,-3,6,2,-2,-6,-11,7,1
1.52968E+15,-2,-26,-27,-13,-1,-6,-2,-2
1.52968E+15,0,14,27,4,2,8,-2,2
1.52968E+15,6,17,38,15,5,-1,4,3
1.52968E+15,2,-14,-45,-10,-5,4,15,6
1.52968E+15,-3,1,8,0,-5,-1,-5,-10
1.52968E+15,1,6,4,9,9,6,9,8
1.52968E+15,3,-4,12,3,2,-4,-10,-3
1.52968E+15,-1,1,19,6,0,-12,4,2
1.52968E+15,-1,4,-6,-6,0,9,-12,-6
1.52968E+15,-6,-20,-21,-9,-6,-8,-3,5
1.52968E+15,5,4,-13,-4,-6,-1,7,2
1.52968E+15,0,0,16,8,5,-8,-14,-1
1.52968E+15,0,6,9,4,-3,-8,0,0
1.52968E+15,-3,-10,18,4,-4,-3,-3,-18
1.52968E+15,-4,-2,-10,-1,-7,-1,11,3
1.52968E+15,-4,-12,-5,5,1,-3,-7,-7
1.52968E+15,2,-5,-1,9,7,3,11,9
1.52968E+15,-3,9,-9,1,1,3,4,0
1.52968E+15,-1,-3,4,-2,-4,-11,0,-4
1.52968E+15,1,4,-5,-9,0,6,2,-3
1.52968E+15,4,1,-3,7,9,5,8,7
1.52968E+15,-5,-3,0,-7,-10,-13,-11,-3
1.52968E+15,1,5,-8,4,-1,2,2,-3
1.52968E+15,-5,-3,34,6,2,2,-7,3
1.52968E+15,-1,-1,-23,-8,-5,-8,-7,-2
1.52968E+15,2,-3,-7,-1,-3,4,6,4
1.52968E+15,-1,0,5,2,5,-3,-2,6
1.52968E+15,-2,-14,-19,-8,-2,-1,8,-12
1.52968E+15,0,21,12,-1,-2,5,-9,-6
1.52968E+15,3,-9,-8,-3,0,-5,-1,5
1.52968E+15,-7,-22,-10,-9,1,4,3,-4
1.52968E+15,4,22,3,1,-2,4,-6,0
1.52968E+15,-2,-8,-5,-8,-9,-9,-7,-4
1.52968E+15,-4,-6,-6,-2,-5,-5,7,-9
1.52968E+15,0,16,9,0,2,3,2,-4
1.52968E+15,1,-1,3,0,2,0,-5,6
1.52968E+15,-1,3,-1,3,2,-1,-1,-7
1.52968E+15,1,3,-3,-3,-2,2,-7,2
1.52968E+15,-3,-11,-18,-2,-1,0,9,0
1.52968E+15,-6,-2,7,-4,-4,-15,-5,-2
1.52968E+15,-2,5,13,4,2,13,10,-8
1.52968E+15,2,-5,-29,-7,-2,-6,-6,2
1.52968E+15,2,14,24,10,5,6,7,0
1.52968E+15,2,-1,8,1,-2,3,-4,5
1.52968E+15,0,-8,-27,-14,-8,-10,1,10
1.52968E+15,0,2,20,7,8,2,7,-2
1.52968E+15,2,8,-6,1,2,-1,5,-1
1.52968E+15,-4,-14,-8,-7,-4,4,-17,1
1.52968E+15,-1,-5,8,-1,-5,-12,-17,-3
1.52968E+15,-1,4,8,0,-1,0,-12,-2
1.52968E+15,1,2,-9,-4,3,6,-3,0
1.52968E+15,4,1,-5,0,1,0,13,8
1.52968E+15,-1,0,7,1,-7,-1,-9,-2
1.52968E+15,-2,-16,-2,-2,-2,0,-7,0
1.52968E+15,-4,8,-9,-2,-5,-12,-7,-1
1.52968E+15,-3,3,12,1,-6,-7,-5,-8
1.52968E+15,-2,-15,-9,1,4,-4,1,-6
1.52968E+15,2,-2,14,4,3,6,14,3
1.52968E+15,-4,-3,-9,-6,-2,-6,-3,2
1.52968E+15,2,9,7,7,1,7,-3,-3
1.52968E+15,-3,10,17,9,5,0,-1,-2
1.52968E+15,-6,-6,-30,-15,-5,0,-4,-2
1.52968E+15,-2,2,-3,-5,-4,-5,-2,-5
1.52968E+15,-5,-28,-25,-7,-3,-13,-11,-13
1.52968E+15,0,2,14,4,0,9,12,2
1.52968E+15,5,-13,-7,1,3,1,-7,-1
1.52968E+15,-1,28,9,-4,-5,-3,-6,1
1.52968E+15,-3,4,9,4,1,1,6,6
1.52968E+15,-1,0,-7,0,1,2,7,-3
1.52968E+15,0,-9,-10,-7,-1,1,4,-2
1.52968E+15,1,-5,-5,0,-1,2,-5,2
1.52968E+15,2,5,17,3,0,7,11,-1
1.52968E+15,1,-3,-6,1,4,-3,-3,2
1.52968E+15,0,18,17,5,-3,-8,-3,-1
1.52968E+15,0,-2,-30,-6,2,7,15,2
1.52968E+15,-7,-5,8,-7,-4,-4,-3,-4
1.52968E+15,1,4,9,4,-3,0,-15,3
1.52968E+15,-1,-1,-2,-6,-3,-2,7,-7
1.52968E+15,2,-17,-12,5,2,-1,2,1
1.52968E+15,4,11,1,-2,0,-1,3,5
1.52968E+15,-4,2,-1,-10,-6,-14,-3,-1
1.52968E+15,3,12,17,6,3,12,8,5
1.52968E+15,-5,-22,6,-1,-1,-3,-5,-5
1.52968E+15,4,1,-26,-1,4,0,-17,4
1.52968E+15,-1,-3,2,-1,-2,0,1,0
1.52968E+15,-3,6,24,4,0,0,0,1
1.52968E+15,0,-3,-14,2,-3,-9,-9,-3
1.52968E+15,-3,-11,-3,-4,1,-1,25,5
1.52968E+15,1,17,-2,2,3,8,-12,-11
1.52968E+15,-1,10,11,3,-7,-11,-21,-1
1.52968E+15,-6,-8,-10,-8,-6,-2,6,0
1.52968E+15,0,6,5,8,-1,-6,-4,-1
1.52968E+15,-7,-18,-38,-14,4,4,3,-3
1.52968E+15,1,4,4,-1,1,-6,7,2
1.52968E+15,0,-8,14,3,-1,0,-6,1
1.52968E+15,2,9,-9,-4,-5,-4,-2,-3
1.52968E+15,1,3,3,5,5,1,2,3
1.52968E+15,0,-2,0,-4,-3,-12,-9,2
1.52968E+15,-2,-10,2,-2,-1,7,-1,-1
1.52968E+15,1,-7,-7,-2,3,14,3,2
1.52968E+15,-2,-3,1,0,-2,12,22,3
1.52968E+15,-3,-4,-23,-3,-1,-2,2,-3
1.52968E+15,1,-2,19,2,-2,-8,-9,-4
1.52968E+15,-1,-2,-6,-1,1,-5,2,0
1.52968E+15,-3,-5,9,5,-7,-3,-7,-5
1.52968E+15,-3,-3,-2,1,0,0,-9,6
1.52968E+15,-2,2,-24,-14,-1,-1,-1,-3
1.52968E+15,-1,-8,-25,-13,-2,-4,-4,-2
1.52968E+15,-1,2,9,1,-1,-8,-4,0
1.52968E+15,-1,8,0,4,1,6,6,2
1.52968E+15,2,3,21,8,-1,-6,0,-1
1.52968E+15,-1,7,11,-1,-4,-9,-12,-5
1.52968E+15,0,-15,-16,-7,-1,3,14,7
1.52968E+15,1,13,5,4,3,8,2,-1
1.52968E+15,-1,2,1,1,-1,-12,-7,-7
1.52968E+15,0,10,-7,10,4,2,5,0
1.52968E+15,3,-4,-2,-6,-5,4,7,5
1.52968E+15,-2,-3,18,-3,-5,5,-3,-4
1.52968E+15,0,-6,4,-1,3,-3,-2,-2
1.52968E+15,-4,-2,-5,-1,3,4,-1,1
1.52968E+15,-3,1,20,3,-1,-6,1,-4
1.52968E+15,1,-6,-41,-12,-1,0,14,2
1.52968E+15,-2,-4,-6,-2,-9,-5,-14,0
1.52968E+15,-2,5,19,3,-5,-4,-5,-3
1.52968E+15,0,-7,-8,2,9,2,4,-5
1.52968E+15,-1,7,12,4,0,0,3,-4
1.52968E+15,4,2,-13,-4,0,-7,-14,2
1.52968E+15,-1,-6,10,-4,-4,-10,4,-2
1.52968E+15,1,5,3,-3,-6,8,1,6
1.52968E+15,0,-10,6,2,2,1,-1,1
1.52968E+15,-7,-5,-9,6,0,-3,-10,-10
1.52968E+15,-2,-6,-20,-12,-6,-3,-11,-1
1.52968E+15,2,0,0,2,-1,-9,-3,1
1.52968E+15,-1,6,16,1,0,-1,13,1
1.52968E+15,1,0,10,4,2,5,1,5
1.52968E+15,4,24,8,5,4,-2,-7,3
1.52968E+15,-4,-12,-11,-4,-3,8,7,2
1.52968E+15,-1,-7,-12,-7,-3,-3,-20,-5
1.52968E+15,0,0,39,6,0,1,6,-4
1.52968E+15,-2,-6,-20,-3,0,3,-4,9
1.52968E+15,-1,8,-10,-2,-4,-7,-14,-5
1.52968E+15,-2,-12,2,-6,-3,-8,-2,-2
1.52968E+15,5,6,3,0,3,2,4,2
1.52968E+15,-2,-7,6,7,3,5,3,-5
1.52968E+15,0,-1,-3,5,3,6,4,3
1.52968E+15,-1,-7,-35,-13,-5,-2,0,1
1.52968E+15,-4,-1,10,-12,-7,-1,9,2
1.52968E+15,0,-4,11,6,-3,-6,-2,-6
1.52968E+15,-5,-2,6,1,2,-2,-2,-17
1.52968E+15,-2,-4,-3,3,2,5,0,-2
1.52968E+15,1,-2,-12,-4,-4,-3,2,3
1.52968E+15,0,-2,-7,-3,1,3,6,-5
1.52968E+15,1,7,5,-2,-5,-5,-19,1
1.52968E+15,-5,-4,0,4,2,-5,-11,-7
1.52968E+15,-5,-37,-29,-6,-3,-4,-3,0
1.52968E+15,-1,1,19,6,5,5,-1,-2
1.52968E+15,2,4,-4,0,1,-1,6,2
1.52968E+15,0,-1,-4,-6,-3,4,4,-1
1.52968E+15,0,10,1,2,0,0,1,2
1.52968E+15,-3,-9,-11,-1,-4,-22,-15,-5
1.52968E+15,-2,-4,-2,-1,2,12,-17,4
1.52968E+15,-3,-1,18,-5,-3,-3,-3,1
1.52968E+15,0,3,-2,-1,-2,0,5,-1
1.52968E+15,-1,-13,-10,-6,0,-1,-4,-2
1.52968E+15,2,16,5,7,1,-2,1,-6
1.52968E+15,-3,-28,-2,-3,-5,-3,6,1
1.52968E+15,-6,10,-4,-2,0,-2,-3,1
1.52968E+15,-2,-7,-18,-8,1,7,9,-2
1.52968E+15,0,2,2,-1,-2,-6,2,3
1.52968E+15,0,10,-21,4,1,2,-1,-1
1.52968E+15,3,-3,35,4,-3,-1,2,1
1.52968E+15,1,2,-9,5,2,1,4,1
1.52968E+15,-8,-9,28,1,-5,-12,3,-12
1.52968E+15,3,3,-8,-5,1,5,-3,4
1.52968E+15,-4,0,-12,-5,0,1,1,-2
1.52968E+15,-1,9,8,2,-5,-4,2,1
1.52968E+15,5,-5,-6,-5,-4,-10,0,5
1.52968E+15,-5,-2,2,8,4,7,4,-3
1.52968E+15,0,3,0,1,4,9,12,-3
1.52968E+15,0,-1,8,-1,-1,6,1,3
1.52968E+15,0,-10,-12,-4,-3,-3,-5,-5
1.52968E+15,1,7,5,-9,-8,-13,2,7
1.52968E+15,4,15,-3,0,-3,-6,-7,-3
1.52968E+15,-2,-15,5,5,3,3,11,4
1.52968E+15,-1,3,-17,-4,2,3,16,8
1.52968E+15,-3,-1,14,7,1,-4,-25,-20
1.52968E+15,0,-1,1,-3,-4,-7,10,3
1.52968E+15,0,5,4,0,2,-1,2,0
1.52968E+15,0,4,-8,0,0,14,5,2
1.52968E+15,0,-15,13,8,4,-3,1,2
1.52968E+15,0,8,-10,-10,-4,-3,3,2
1.52968E+15,0,0,-11,-7,-7,-9,-4,-9
1.52968E+15,-2,2,9,2,3,4,0,12
1.52968E+15,1,7,-11,6,4,3,0,1
1.52968E+15,-1,2,13,1,-1,1,-6,2
1.52968E+15,-2,-16,10,9,-2,-3,-4,-3
1.52968E+15,-3,-6,-34,-27,-13,-4,3,-7
1.52968E+15,1,0,3,4,0,1,-1,2
1.52968E+15,2,8,-13,8,10,1,-8,4
1.52968E+15,-1,26,21,4,0,5,8,0
1.52968E+15,-1,-11,9,2,0,6,13,5
1.52968E+15,0,-14,-12,-5,-6,-6,3,5
1.52968E+15,3,-4,-1,1,4,5,2,0
1.52968E+15,-2,7,8,0,0,-4,-5,-14
1.52968E+15,1,2,-8,1,0,-7,-20,-7
1.52968E+15,1,-10,5,0,3,9,14,12
1.52968E+15,-5,8,-8,-11,-9,-11,-8,-8
1.52968E+15,2,-1,-5,-5,-3,-4,0,5
1.52968E+15,1,7,-1,2,-2,-4,-7,-1
1.52968E+15,-1,-1,-10,-4,-1,0,-5,-3
1.52968E+15,-1,-4,17,15,4,4,3,2
1.52968E+15,3,-5,-27,-16,0,1,-5,-5
1.52968E+15,-1,-2,-3,2,-2,1,-12,-7
1.52968E+15,1,12,24,3,-2,-5,6,2
1.52968E+15,1,-5,5,5,3,-3,-4,-2
1.52968E+15,-2,10,-4,-2,-2,1,5,0
1.52968E+15,-2,-8,6,7,5,2,0,0
1.52968E+15,-2,7,0,0,-2,-3,17,5
1.52968E+15,0,1,6,2,-3,0,-21,-3
1.52968E+15,-2,-10,-1,-1,-2,-6,-4,2
1.52968E+15,-2,-3,-3,-3,-2,-8,-1,-2
1.52968E+15,4,4,-5,-3,3,1,-6,11
1.52968E+15,-10,-9,-19,-11,-7,-9,16,-6
1.52968E+15,1,-6,10,9,1,5,-10,-2
1.52968E+15,-2,4,11,-10,-2,2,-5,1
1.52968E+15,3,4,8,7,3,-2,-5,0
1.52968E+15,2,3,6,7,1,-1,6,4
1.52968E+15,-4,-8,-14,-11,-7,-1,-1,-3
1.52968E+15,6,15,11,8,0,-6,-2,3
1.52968E+15,-8,-7,-10,-6,1,1,-5,-10
1.52968E+15,3,7,-5,-6,0,7,-10,-3
1.52968E+15,1,2,5,0,-2,-3,1,3
1.52968E+15,2,-5,0,-2,-1,-4,3,3
1.52968E+15,2,4,-4,-3,0,-3,-4,0
1.52968E+15,-5,-15,-1,5,4,4,3,-6
1.52968E+15,-1,16,33,4,-5,-7,4,-1
1.52968E+15,-4,-6,-6,-3,-4,2,-5,-2
1.52968E+15,-1,-5,2,2,-2,-5,-5,-8
1.52968E+15,1,-2,-13,-5,0,0,0,5
1.52968E+15,0,4,-6,0,-3,-7,-16,1
1.52968E+15,-5,-9,0,2,0,-5,5,-6
1.52968E+15,-3,1,-4,2,3,4,12,2
1.52968E+15,-1,-4,6,-1,-2,-2,-3,1
1.52968E+15,-1,-7,-10,-4,2,5,9,2
1.52968E+15,1,1,1,1,-4,-12,-10,0
1.52968E+15,2,2,8,7,4,-1,1,4
1.52968E+15,-2,-3,-6,-3,-5,9,7,-2
1.52968E+15,-2,5,4,-3,-3,-5,-3,-4
1.52968E+15,-4,-19,-13,0,4,11,6,-3
1.52968E+15,-1,0,-1,1,0,0,4,-7
1.52968E+15,-3,-4,-12,-5,-4,-4,3,2
1.52968E+15,-1,1,6,-2,-1,3,7,2
1.52968E+15,-2,0,5,-9,-6,-7,-6,-5
1.52968E+15,-4,0,-11,-6,-1,-2,8,2
1.52968E+15,3,-1,3,1,1,0,0,6
1.52968E+15,1,-2,7,12,4,5,-2,2
1.52968E+15,0,0,0,4,0,-3,28,7
1.52968E+15,0,-11,6,-5,-5,-10,4,-3
1.52968E+15,-3,2,-6,-10,-3,1,-25,-10
1.52968E+15,-1,4,-16,-4,0,0,-4,-2
1.52968E+15,1,-4,8,9,3,7,-1,-1
1.52968E+15,1,6,4,-3,-6,-9,-5,-2
1.52968E+15,-1,-11,-21,0,2,6,14,1
1.52968E+15,0,-1,21,1,1,-3,4,11
1.52968E+15,4,32,8,6,5,2,-16,-6
1.52968E+15,-2,-9,-21,-9,-1,-5,-11,-3
1.52968E+15,-1,-4,-14,-2,-10,-18,-21,-2
1.52968E+15,-1,-8,2,-1,-1,7,15,-1
1.52968E+15,1,4,9,5,7,3,0,3
1.52968E+15,0,8,1,2,3,10,2,0
1.52968E+15,-2,-4,-1,-1,-1,-8,-3,6
1.52968E+15,2,-8,-15,-5,-5,-13,1,-2
1.52968E+15,-3,-4,-1,-7,-10,7,-17,-2
1.52968E+15,0,9,12,7,1,-2,-13,-5
1.52968E+15,1,-7,10,-2,3,-1,21,1
1.52968E+15,0,-7,-13,3,3,2,-17,1
1.52968E+15,-2,-1,-17,-4,1,3,11,1
1.52968E+15,-1,7,2,-2,-3,-3,-2,-3
1.52968E+15,4,11,-15,-1,-1,0,-6,-4
1.52968E+15,-4,-3,9,-2,-6,-9,-3,1
1.52968E+15,-3,-2,7,-1,-3,-5,5,-3
1.52968E+15,4,7,-5,0,2,7,1,5
1.52968E+15,-1,-1,15,9,4,-2,10,-1
1.52968E+15,0,-10,-14,-1,-1,5,3,-3
1.52968E+15,2,-8,-13,-5,-3,-6,-5,4
1.52968E+15,-3,7,4,-4,-4,-5,-3,1
1.52968E+15,1,-5,8,0,2,-1,14,0
1.52968E+15,13,1,5,1,3,4,-5,12
1.52968E+15,1,12,6,4,4,8,11,0
1.52968E+15,-1,-9,-3,-2,-2,-8,-8,-1
1.52968E+15,-3,4,-1,0,-3,2,-6,-7
1.52968E+15,-3,-2,-28,-11,-3,-7,-5,-5
1.52968E+15,-7,-6,13,4,-1,-4,1,0
1.52968E+15,-2,-8,7,3,2,2,-1,2
1.52968E+15,0,1,8,2,-3,-1,0,4
1.52968E+15,0,5,1,2,0,-5,0,-3
1.52968E+15,3,-6,-14,-6,1,9,1,-2
1.52968E+15,-3,4,-20,-11,-1,-2,3,-8
1.52968E+15,-2,-3,7,0,-2,-5,-23,-8
1.52968E+15,-5,-2,1,3,2,0,-6,1
1.52968E+15,0,-5,-23,-6,1,-3,6,2
1.52968E+15,-2,4,34,9,-1,-5,-3,-3
1.52968E+15,1,2,-11,-11,-3,2,-3,-5
1.52968E+15,-7,-3,-12,-4,1,-1,26,10
1.52968E+15,-5,3,10,6,1,-4,-18,-10
1.52968E+15,2,-7,-16,-8,-8,-2,-5,-3
1.52968E+15,3,40,10,2,0,0,7,7
1.52968E+15,-8,-21,3,4,1,-2,-10,-13
1.52968E+15,2,-8,-14,-1,-1,-1,11,14
1.52968E+15,-2,-13,2,-2,-1,-7,-8,-1
1.52968E+15,-1,-14,8,7,0,-13,-9,2
1.52968E+15,0,5,-43,-20,-6,4,11,3
1.52968E+15,1,6,38,7,4,0,-15,-18
1.52968E+15,-1,3,-5,4,2,8,-3,12
1.52968E+15,0,-7,3,-5,-5,4,-4,3
1.52968E+15,1,9,9,2,-2,-3,-14,-4
1.52968E+15,-4,-3,0,-2,-3,-7,14,7
1.52968E+15,0,-1,-10,0,2,-1,-3,-1
1.52968E+15,1,-8,-3,-2,-1,-3,-2,-1
1.52968E+15,0,-1,1,1,-4,-4,0,-3
1.52968E+15,6,10,21,3,0,-2,-4,-1
1.52968E+15,0,1,-3,2,0,-3,3,-5
1.52968E+15,-1,-14,-4,-3,3,4,6,-1
1.52968E+15,0,9,1,0,0,-1,1,0
1.52968E+15,-4,-16,-39,-12,-8,-6,-10,-4
1.52968E+15,-1,-1,13,1,-1,-2,6,4
1.52968E+15,2,5,3,-2,1,3,4,-1
1.52968E+15,0,-1,13,4,0,0,5,6
1.52968E+15,-5,3,11,-2,-6,-13,-21,-20
1.52968E+15,-1,-4,-8,2,-2,-7,20,7
1.52968E+15,0,0,-8,-2,2,15,0,-3
1.52968E+15,0,6,16,5,4,-2,4,2
1.52968E+15,1,-14,-23,-3,-1,1,1,7
1.52968E+15,0,-3,-11,-4,-9,-9,-4,-9
1.52968E+15,-2,3,4,4,1,-1,1,-5
1.52968E+15,-1,10,1,4,4,-1,-15,-4
1.52968E+15,0,-10,12,4,1,-3,5,4
1.52968E+15,2,0,-5,0,1,-3,-13,-2
1.52968E+15,-4,-7,-11,-1,-3,-9,5,-6
1.52968E+15,3,2,19,9,0,10,-1,4
1.52968E+15,0,25,15,0,-1,-10,-6,-7
1.52968E+15,-3,-2,6,8,2,14,11,-5
1.52968E+15,0,-3,-4,-3,1,-6,1,-3
1.52968E+15,-3,2,-9,-2,-1,1,2,-1
1.52968E+15,3,2,4,0,-2,1,4,7
1.52968E+15,-2,-3,-14,-9,-1,-1,-11,-16
1.52968E+15,-3,-3,8,-4,-6,1,6,15
1.52968E+15,1,-11,3,4,3,-2,-6,-2
1.52968E+15,-2,10,-20,-8,1,7,8,3
1.52968E+15,-3,-5,7,-3,-4,-7,-5,-2
1.52968E+15,0,-4,-5,0,0,1,-15,-2
1.52968E+15,1,9,9,-1,-1,-2,8,2
1.52968E+15,-3,9,11,-4,-4,-12,-25,-3
1.52968E+15,1,5,-8,-2,0,5,1,9
1.52968E+15,0,-9,9,3,2,-4,11,-5
1.52968E+15,-1,-16,-14,0,-1,-2,-6,-2
1.52968E+15,7,20,9,4,0,10,18,7
1.52968E+15,-6,0,13,1,0,-6,-9,-11
1.52968E+15,1,7,-7,1,2,-2,-13,-5
1.52968E+15,-3,-9,-21,-2,-3,-5,-3,1
1.52968E+15,-1,-20,-23,3,-1,3,1,4
1.52968E+15,0,9,13,-7,-4,-1,-1,3
1.52968E+15,0,4,15,4,-1,-6,2,2
1.52968E+15,-3,-3,-3,-5,-3,4,-2,-9
1.52968E+15,-1,-10,-8,-3,-6,-1,-7,-2
1.52968E+15,3,1,7,4,3,3,6,5
1.52968E+15,2,4,-8,3,5,6,0,-1
1.52968E+15,-2,12,7,-5,-7,-9,-21,-16
1.52968E+15,-3,-4,-2,-2,-1,-6,19,15
1.52968E+15,3,-3,12,9,4,5,0,3
1.52968E+15,-4,-2,-21,-11,-7,-7,1,-5
1.52968E+15,0,-12,-6,-8,-5,-7,-4,1
1.52968E+15,3,6,-12,0,2,7,4,6
1.52968E+15,-3,-10,-1,-3,-2,-8,-3,-6
1.52968E+15,-1,-4,5,2,-5,-6,-3,4
1.52968E+15,-2,-6,0,-3,0,-2,3,0
1.52968E+15,3,9,8,2,4,1,-4,-5
1.52968E+15,3,9,-8,0,4,5,4,9
1.52968E+15,3,-5,8,8,1,-8,5,-1
1.52968E+15,-4,-5,7,-4,-4,-3,-4,1
1.52968E+15,-2,-17,-3,-1,1,-3,1,-5
1.52968E+15,-6,-6,-18,-2,-3,5,-3,-3
1.52968E+15,-3,1,1,-5,-7,-2,6,1
1.52968E+15,0,4,4,3,4,4,5,-4
1.52968E+15,-1,0,-10,4,2,1,-5,-1
1.52968E+15,2,-15,6,-7,-2,-7,0,1
1.52968E+15,-1,8,7,3,3,6,9,0
1.52968E+15,4,-1,-20,-8,-1,-2,-15,2
1.52968E+15,-6,-10,1,-3,-2,-9,6,-4
1.52968E+15,1,5,-11,-6,-4,1,13,6
1.52968E+15,-1,9,11,2,-2,9,20,4
1.52968E+15,-1,-2,-4,2,-1,-7,-8,-10
1.52968E+15,2,-2,-5,2,-1,-6,-16,-4
1.52968E+15,2,-3,8,-3,-1,0,1,5
1.52968E+15,2,10,7,1,2,-3,-9,0
1.52968E+15,0,0,-30,-1,6,11,16,3
1.52968E+15,-1,-1,26,3,-1,5,-6,-2
1.52968E+15,-3,1,-10,0,1,-2,-5,-3
1.52968E+15,-1,-4,-12,-5,0,-9,-12,-2
1.52968E+15,-6,-12,10,-2,-3,0,8,-1
1.52968E+15,1,5,3,1,-3,2,7,4
1.52968E+15,-4,-2,-5,2,-1,-2,1,-5
1.52968E+15,0,-8,-11,-5,3,4,-4,3
1.52968E+15,3,11,10,4,-3,-5,5,2
1.52968E+15,-6,-7,-3,-9,-7,-11,2,-7
1.52968E+15,2,7,0,2,-4,-8,-18,-11
1.52968E+15,-1,-17,-10,0,6,17,27,16
1.52968E+15,1,7,29,10,1,-1,10,9
1.52968E+15,1,3,-17,1,-2,5,-2,-7
1.52968E+15,-1,1,2,-3,-3,-5,0,0
1.52968E+15,-4,6,3,-2,-2,-6,-31,-11
1.52968E+15,0,5,9,-2,-2,-3,-1,-6
1.52968E+15,0,3,0,-1,2,9,-6,1
1.52968E+15,-2,-14,-19,-6,-6,-10,-6,4
1.52968E+15,-1,1,5,0,-2,3,-3,-4
1.52968E+15,0,0,4,3,4,5,7,3
1.52968E+15,1,4,5,-1,2,-10,-11,-3
1.52968E+15,-1,-1,-16,-5,-1,4,12,2
1.52968E+15,-1,-6,16,2,-5,-8,-3,4
1.52968E+15,-1,4,-7,-4,-1,2,-13,-2
1.52968E+15,-1,-10,-5,4,7,7,16,0
1.52968E+15,1,2,1,-4,0,7,-3,-1
1.52968E+15,1,7,-10,-1,-5,-5,-8,-9
1.52968E+15,2,1,-10,3,1,-2,2,10
1.52968E+15,-6,-4,11,-5,-4,-4,-1,-6
1.52968E+15,1,0,0,-3,0,2,1,3
1.52968E+15,1,4,-1,1,0,-7,-7,-6
1.52968E+15,-2,1,-7,0,-2,12,2,-7
1.52968E+15,4,2,-4,3,5,3,-4,4
1.52968E+15,-2,-2,17,10,5,9,13,3
1.52968E+15,-1,-4,-37,-23,-11,-9,-13,-3
1.52968E+15,0,7,35,4,-3,-7,-8,-10
1.52968E+15,-2,-5,7,-3,-2,3,9,-1
1.52968E+15,3,2,-1,10,13,7,-7,5
1.52968E+15,1,1,-15,-2,2,0,8,-1
1.52968E+15,-6,-36,-27,-5,-4,5,0,7
1.52968E+15,3,17,24,2,-2,-5,-6,-4
1.52968E+15,0,9,7,0,-1,-9,-16,-6
1.52968E+15,-2,-5,3,4,3,8,16,7
1.52968E+15,2,4,-15,-4,-2,3,-1,3
1.52968E+15,-1,-14,-3,-2,-4,-3,6,3
1.52968E+15,-1,7,9,0,-3,3,0,2
1.52968E+15,2,12,29,11,8,6,2,-2
1.52968E+15,-3,-14,-42,-20,-6,0,2,-3
1.52968E+15,1,4,-6,-2,-4,0,-1,2
1.52968E+15,2,2,-3,-3,-3,-9,-2,1
1.52968E+15,0,-12,6,5,6,5,-10,-5
1.52968E+15,1,15,22,6,3,13,10,10
1.52968E+15,-1,7,-16,-6,-3,-1,11,1
1.52968E+15,-1,-12,-7,-1,-3,-2,-3,3
1.52968E+15,0,4,-18,-3,-7,-6,-2,-4
1.52968E+15,1,-7,30,4,2,2,-3,-5
1.52968E+15,1,22,22,6,3,-9,-15,-1
1.52968E+15,-1,-3,-18,-7,-4,11,13,-2
1.52968E+15,1,11,7,2,3,-2,6,6
1.52968E+15,-2,-4,-10,-2,-2,0,4,-5
1.52968E+15,-2,-8,-22,-12,-4,-8,-5,8
1.52968E+15,1,-3,3,2,0,9,-6,3
1.52968E+15,-3,-7,2,0,-4,-6,-10,-10
1.52968E+15,1,15,19,9,6,4,-7,-5
1.52968E+15,-5,-36,-12,2,1,1,4,0
1.52968E+15,0,9,-2,-1,-2,-13,-2,-7
1.52968E+15,-4,-11,-3,-6,-10,-8,0,-2
1.52968E+15,2,1,-1,1,4,11,1,1
1.52968E+15,1,11,24,11,3,-8,0,-2
1.52968E+15,-3,-13,-3,-3,-3,-4,-4,-4
1.52968E+15,-1,2,8,0,2,11,10,1
1.52968E+15,-6,-5,-15,-4,-4,-12,-3,-7
1.52968E+15,2,2,-11,-2,0,9,5,-7
1.52968E+15,-2,1,11,3,1,-5,-11,4
1.52968E+15,-3,-1,-7,-16,-8,-16,-6,-5
1.52968E+15,0,-7,-15,-4,-1,6,4,-3
1.52968E+15,-1,0,1,-1,-2,1,4,12
1.52968E+15,0,-8,7,9,2,-4,-2,-4
1.52968E+15,-1,12,13,4,2,5,26,8
1.52968E+15,-3,8,-4,-5,-3,-13,-37,-6
1.52968E+15,-1,-8,-8,-7,-2,1,-7,-7
1.52968E+15,-3,-2,3,1,-2,-1,-6,-7
1.52968E+15,-3,-5,-4,3,2,5,-9,-4
1.52968E+15,1,-3,3,-2,-5,-6,14,3
1.52968E+15,0,11,-2,0,1,3,-1,-3
1.52968E+15,-2,-1,-2,-9,0,-1,12,-5
1.52968E+15,0,-9,-19,-4,-5,-9,-13,9
1.52968E+15,-2,-8,3,3,-1,5,12,0
1.52968E+15,-1,-11,-9,-4,-4,-7,-18,0
1.52968E+15,-3,16,-6,-2,1,1,16,-8
1.52968E+15,0,-1,8,6,-1,-5,-5,-1
1.52968E+15,0,5,21,7,1,1,1,2
1.52968E+15,2,-1,-6,-1,2,-4,0,3
1.52968E+15,-3,-8,-6,-5,-2,2,2,-6
1.52968E+15,-1,-5,-9,-4,-1,-13,-15,-6
1.52968E+15,1,3,-16,-5,2,9,-5,0
1.52968E+15,-4,4,9,-3,-5,-1,6,-1
1.52968E+15,-2,-14,-8,-4,-4,-3,-6,-2
1.52968E+15,1,-7,0,-4,-3,-4,-1,3
1.52968E+15,2,7,18,12,4,-3,1,0
1.52968E+15,0,-2,-18,-7,3,-1,-9,-2
1.52968E+15,2,10,0,-2,-4,-1,-2,1
1.52968E+15,-3,-10,3,1,-4,0,2,-3
1.52968E+15,-1,2,8,-1,1,-6,5,-1
1.52968E+15,1,-1,11,6,1,5,5,0
1.52968E+15,0,-10,-22,-10,-2,-2,-6,3
1.52968E+15,2,7,12,7,1,3,8,-5
1.52968E+15,-2,4,-7,-4,3,1,-8,3
1.52968E+15,-3,-4,-1,1,-2,-7,-2,-5
1.52968E+15,0,2,2,-4,-2,2,8,1
1.52968E+15,1,-2,0,-6,-1,-1,-1,-4
1.52968E+15,-2,-9,0,-5,-3,-1,3,-1
1.52968E+15,-5,2,7,1,1,5,12,-2
1.52968E+15,4,15,9,1,0,-8,-5,4
1.52968E+15,0,-11,-7,1,-1,6,-5,5
1.52968E+15,0,-2,3,-4,-13,-12,-17,-10
1.52968E+15,-11,-8,-5,5,0,-3,5,-14
1.52968E+15,1,3,22,9,0,-2,0,-4
1.52968E+15,2,18,-5,1,-4,-2,-5,-1
1.52968E+15,-4,-11,-19,-1,6,-1,5,-1
1.52968E+15,1,-13,7,0,-1,0,-5,3
1.52968E+15,-5,-14,-8,-2,1,2,0,0
1.52968E+15,-1,3,-10,-5,-3,-8,-8,-6
1.52968E+15,3,10,30,6,-7,0,7,0
1.52968E+15,-1,-12,-11,-4,-2,0,-7,4
1.52968E+15,0,-2,-5,4,10,8,8,0
1.52968E+15,-1,-5,0,0,2,-3,3,4
1.52968E+15,3,6,-1,4,1,3,8,7
1.52968E+15,-6,0,-10,-2,-4,-5,-8,-7
1.52968E+15,-1,7,6,-7,-5,-7,-2,-3
1.52968E+15,-3,5,4,-1,-1,7,-3,-8
1.52968E+15,-1,-6,-7,-3,6,7,24,5
1.52968E+15,4,5,-6,-1,2,3,11,8
1.52968E+15,1,2,-9,0,-3,-3,-8,3
1.52968E+15,-1,7,19,1,-1,-4,9,-4
1.52968E+15,-3,-5,-2,-8,-10,-11,-21,-3
1.52968E+15,2,-2,-5,-2,3,2,-3,4
1.52968E+15,1,-6,-7,2,-1,1,0,0
1.52968E+15,-3,-7,-2,1,6,8,11,4
1.52968E+15,4,11,-2,2,-1,-2,1,-1
1.52968E+15,-3,-9,8,0,-8,-10,-7,-6
1.52968E+15,-7,-18,-1,-3,-4,0,-2,-4
1.52968E+15,1,8,1,-1,2,-3,6,-1
1.52968E+15,-3,-6,-4,-4,2,-9,-12,-3
1.52968E+15,2,10,-6,6,8,16,2,-1
1.52968E+15,1,9,4,-8,-6,0,4,-2
1.52968E+15,-3,-15,-22,-16,-7,-4,-3,-1
1.52968E+15,-2,4,-3,3,-2,-14,1,-3
1.52968E+15,2,1,-1,-1,6,11,2,-2
1.52968E+15,0,-6,-5,1,0,-6,-6,8
1.52968E+15,4,4,17,12,4,3,5,7
1.52968E+15,-1,-8,-13,-6,4,4,5,-2
1.52968E+15,-1,2,-17,-7,0,-13,0,1
1.52968E+15,0,3,5,6,7,8,-3,-10
1.52968E+15,-6,-23,-12,-7,-5,-2,-3,-3
1.52968E+15,0,16,14,6,-2,2,13,14
1.52968E+15,-3,-13,-11,-3,-4,-10,-21,-9
1.52968E+15,-2,11,31,1,-3,-2,-2,-1
1.52968E+15,0,4,-7,-3,-3,-2,-16,0
1.52968E+15,-1,-18,3,4,1,4,-5,-10
1.52968E+15,4,12,20,3,3,-2,1,2
1.52968E+15,0,1,7,5,6,4,6,3
1.52968E+15,-2,-2,-40,-14,-7,-6,-6,0
1.52968E+15,1,11,30,3,-3,4,-3,-2
1.52968E+15,2,-9,-11,-5,-6,-7,15,12
1.52968E+15,3,2,6,5,1,-4,-1,-4
1.52968E+15,5,-6,9,9,7,9,4,1
1.52968E+15,-4,4,-23,-7,-4,1,-2,-4
1.52968E+15,4,8,3,2,0,5,20,2
1.52968E+15,-2,11,-16,1,1,-11,-9,5
1.52968E+15,4,-11,4,2,2,0,0,1
1.52968E+15,-3,-19,-14,-11,-9,-14,-11,-7
1.52968E+15,4,32,29,15,7,7,-1,2
1.52968E+15,-4,-10,-15,-5,-2,1,8,5
1.52968E+15,-3,4,-1,2,1,3,-6,-2
1.52968E+15,-1,-18,-26,-7,-4,-8,-7,-2
1.52968E+15,1,1,38,2,-9,-2,8,6
1.52968E+15,3,-4,-40,-9,3,2,-5,-2
1.52968E+15,-1,-2,19,2,6,10,-1,-4
1.52968E+15,5,24,-1,3,3,2,4,3
1.52968E+15,-12,-38,-4,-8,-5,-15,-7,-6
1.52968E+15,-2,-10,-7,-10,-6,3,-2,-6
1.52968E+15,-6,-1,2,-3,-3,-3,17,-3
1.52968E+15,6,16,9,0,3,-3,-4,8
1.52968E+15,1,-1,29,12,2,4,-9,-2
1.52968E+15,-6,-16,-37,-18,-9,-8,-11,-9
1.52968E+15,3,20,-6,0,2,-1,15,5
1.52968E+15,1,1,0,-1,-2,2,-3,3
1.52968E+15,-4,10,-5,-5,-4,-9,-4,-3
1.52968E+15,3,-13,4,1,-3,6,16,12
1.52968E+15,8,9,7,7,5,4,-1,3
1.52968E+15,-1,5,17,10,5,-1,1,-7
1.52968E+15,-3,-7,-17,-6,-4,-10,-7,-4
1.52968E+15,-3,-6,7,3,1,8,-15,-7
1.52968E+15,-2,2,-8,-5,0,3,14,6
1.52968E+15,-4,-12,-9,-3,-1,-2,-33,-6
1.52968E+15,2,2,2,-3,-1,4,-5,-1
1.52968E+15,0,9,23,4,-5,-10,0,-6
1.52968E+15,2,2,4,3,-6,-5,-9,3
1.52968E+15,-6,-9,-11,-5,1,7,14,-1
1.52968E+15,1,-2,-23,-2,2,-2,2,-2
1.52968E+15,2,6,11,7,1,0,14,5
1.52968E+15,-1,8,14,-3,-6,-6,-24,-4
1.52968E+15,-2,-14,-7,-4,-5,-4,-8,-7
1.52968E+15,-6,-5,-18,-9,-3,-3,11,9
1.52968E+15,2,7,14,5,2,2,1,-2
1.52968E+15,-3,0,-22,-1,2,-5,-4,-9
1.52968E+15,-1,-13,15,-3,-4,6,16,2
1.52968E+15,-4,-7,-11,-4,-3,-10,-14,-7
1.52968E+15,0,9,11,9,9,20,20,0
1.52968E+15,-2,-6,0,4,0,-8,-12,-5
1.52968E+15,0,11,0,1,4,15,7,-1
1.52968E+15,3,2,-1,4,0,-2,4,0
1.52968E+15,0,-7,-14,-3,-8,-11,-5,7
1.52968E+15,-1,27,35,3,0,-3,-10,-9
1.52968E+15,-6,-31,-23,-1,-3,-7,12,7
1.52968E+15,4,4,6,0,7,5,-6,-3
1.52968E+15,-5,-22,-23,-5,2,-4,-10,-6
1.52968E+15,3,13,3,-9,-6,-5,-11,-5
1.52968E+15,-3,20,-4,-4,-8,-13,11,3
1.52968E+15,-3,-6,-2,2,0,6,-5,0
1.52968E+15,1,4,20,4,1,-4,-1,3
1.52968E+15,-1,-22,-39,-15,0,1,5,-1
1.52968E+15,-2,-2,10,0,-1,1,-17,-9
1.52968E+15,-1,-4,-4,-1,-3,-6,-9,-3
1.52968E+15,1,13,10,6,0,-4,2,1
1.52968E+15,-4,-2,11,5,0,0,7,-1
1.52968E+15,2,3,-16,0,4,0,-9,1
1.52968E+15,1,7,5,-1,-2,-1,5,-4
1.52968E+15,2,12,10,-2,-9,-4,-6,1
1.52968E+15,-3,-16,-8,-3,-2,-5,5,8
1.52968E+15,1,0,-16,-2,2,-4,-1,2
1.52968E+15,0,0,40,12,5,12,2,-2
1.52968E+15,0,-6,-55,-21,0,-1,15,-1
1.52968E+15,1,-7,37,9,-3,1,-1,10
1.52968E+15,-1,11,10,-2,-4,-2,1,-10
1.52968E+15,1,10,2,0,1,0,9,9
1.52968E+15,-2,-6,1,4,4,-2,-9,3
1.52968E+15,2,-11,-32,-5,4,9,5,0
1.52968E+15,7,19,20,7,-2,-9,0,9
1.52968E+15,-6,-41,-26,-9,-5,1,7,-5
1.52968E+15,0,5,-7,-1,-3,0,-6,-5
1.52968E+15,0,-1,16,3,-3,0,-7,-5
1.52968E+15,-2,-7,13,3,-3,-4,6,-4
1.52968E+15,2,12,-8,-6,1,9,-4,4
1.52968E+15,-2,-5,1,-2,0,0,1,-4
1.52968E+15,-2,-8,-2,-5,-4,-2,2,6
1.52968E+15,2,-8,-29,2,9,10,1,2
1.52968E+15,-1,12,-15,-4,-5,-12,-7,-7
1.52968E+15,-3,-10,30,1,-2,-3,1,-6
1.52968E+15,-2,4,3,4,0,7,-1,0
1.52968E+15,1,2,12,4,5,-1,9,-6
1.52968E+15,-5,-1,-29,-19,-9,-7,-1,-3
1.52968E+15,2,-10,-26,1,1,-4,-13,7
1.52968E+15,1,9,35,3,1,-2,4,-1
1.52968E+15,-4,-7,-32,-14,-4,-6,-21,-11
1.52968E+15,-3,-5,22,2,-4,-5,39,1
1.52968E+15,0,22,7,-2,-3,-1,-6,-7
1.52968E+15,1,-17,-19,2,9,10,-28,-11
1.52968E+15,-8,-6,15,4,5,13,24,26
1.52968E+15,5,17,-5,-3,-3,-6,-10,3
1.52968E+15,-3,-7,8,-2,-3,4,8,4
1.52968E+15,1,-13,-10,4,-5,1,-1,-2
1.52968E+15,3,5,7,3,0,1,-7,3
1.52968E+15,2,1,0,4,2,-7,-15,-7
1.52968E+15,-1,3,14,5,1,4,4,7
1.52968E+15,-2,6,-6,-8,-6,-9,-5,-5
1.52968E+15,1,-4,-9,-2,-1,-1,4,11
1.52968E+15,-2,-1,-15,1,3,4,-6,-12
1.52968E+15,-5,-6,31,12,1,0,-11,-11
1.52968E+15,-3,-3,-8,-15,-10,-7,22,7
1.52968E+15,-1,-25,-6,-2,-4,-4,-13,-10
1.52968E+15,6,41,11,10,8,4,-2,1
1.52968E+15,0,-4,-3,1,3,-10,-7,17
1.52968E+15,-5,0,-22,-5,-1,-3,5,-7
1.52968E+15,5,17,17,-8,-7,6,-16,-1
1.52968E+15,-7,-27,-14,-5,-3,-1,19,5
1.52968E+15,-1,-15,-13,-5,0,-7,-14,3
1.52968E+15,5,11,27,14,10,16,29,14
1.52968E+15,2,11,-13,5,3,3,-9,-1
1.52968E+15,1,-6,25,4,-5,-6,-8,-2
1.52968E+15,0,12,-2,-5,-7,-2,4,-4
1.52968E+15,1,4,28,9,0,-4,-3,1
1.52968E+15,-2,-9,-62,-25,-11,-11,2,-9
1.52968E+15,-3,6,21,5,2,-2,-4,2
1.52968E+15,1,-6,-10,1,4,-1,4,-3
1.52968E+15,-5,-9,-13,0,-1,-7,-16,-10
1.52968E+15,-2,11,23,-11,-6,-3,11,-4
1.52968E+15,1,-21,2,1,0,-2,0,4
1.52968E+15,-2,26,0,-4,-2,-1,-4,-7
1.52968E+15,-2,-5,2,4,-1,1,2,-8
1.52968E+15,0,-8,-8,2,-1,-8,-7,13
1.52968E+15,5,6,-22,-4,-1,-7,22,-3
1.52968E+15,-3,-32,14,4,2,15,-4,-1
1.52968E+15,3,7,-10,-2,3,8,0,2
1.52968E+15,-2,4,26,10,0,-7,-3,-2
1.52968E+15,3,0,-3,2,2,5,-6,4
1.52968E+15,0,15,-1,-1,-4,-10,11,-10
1.52968E+15,-1,1,-17,-1,-1,-2,-11,2
1.52968E+15,-5,-24,-9,-7,-3,4,-4,-10
1.52968E+15,-4,14,13,0,-3,-4,-2,3
1.52968E+15,0,-1,-13,-5,-4,-5,-6,-6
1.52968E+15,-2,-5,7,1,-1,-6,-6,-1
1.52968E+15,1,22,22,10,9,3,3,2
1.52968E+15,-4,-22,-9,-4,-3,4,-17,-9
1.52968E+15,-1,8,-10,-12,-8,0,10,8
1.52968E+15,0,-6,-12,-8,-2,-5,1,-2
1.52968E+15,1,2,9,12,2,0,0,0
1.52968E+15,2,10,-13,-3,2,3,-1,-1
1.52968E+15,-6,-28,-4,1,6,2,1,1
1.52968E+15,-2,-3,-10,0,0,2,1,-3
1.52968E+15,0,4,7,3,2,9,16,-1
1.52968E+15,0,-4,-15,-3,-5,-14,-14,-6
1.52968E+15,-5,9,23,7,3,7,6,5
1.52968E+15,0,4,5,7,5,2,2,7
1.52968E+15,-3,-15,-16,1,1,6,-2,-1
1.52968E+15,-4,5,-1,-1,-3,-2,3,0
1.52968E+15,7,9,-7,-4,-6,-6,-8,-5
1.52968E+15,-4,-7,1,-3,-7,-14,-2,1
1.52968E+15,1,9,19,1,7,12,6,-9
1.52968E+15,1,-11,-13,-4,-1,4,-6,-3
1.52968E+15,-4,-22,16,5,2,-2,-1,-5
1.52968E+15,4,6,2,2,3,3,5,2
1.52968E+15,-1,-7,-23,-7,-8,-14,-7,0
1.52968E+15,3,12,15,3,2,2,-2,7
1.52968E+15,0,-12,-21,-18,-5,-4,18,2
1.52968E+15,-4,2,17,-2,-4,-1,-34,-24
1.52968E+15,-3,-2,-2,1,3,-5,-6,3
1.52968E+15,0,-3,13,8,4,7,14,17
1.52968E+15,3,14,-16,-3,-3,-5,-3,4
1.52968E+15,1,-3,-23,-3,-5,2,4,3
1.52968E+15,-4,-6,14,-2,-4,-9,-7,4
1.52968E+15,-1,-9,-20,-5,1,8,4,-5
